Time,Target torque,Current elbow Torque(N),Target force,Current shoulder Torque (N),Bicep (EMG_1),Tricep lateral (EMG_2),Anterior Deltoid (EMG_3),Medial Deltoid (EMG_4),Posterior Deltoid (EMG_5),Pectoralis Major (EMG_6),Lower Trapezius (EMG_7),Middle Trapezius (EMG_8)
44.1969469,55,1.698963697423185,1.0,0.0,2.261894202711332,2.261732345304475,2.261732345304475,2.2615704878977936,2.2615704878977936,2.261732345304475,2.261894202711332,2.261732345304475
44.1977394,55,1.698963697423185,1.0,0.0,2.2620560601183635,2.261894202711332,2.261732345304475,2.261732345304475,2.261894202711332,2.261732345304475,2.2620560601183635,2.261894202711332
44.1985319,55,1.698963697423185,1.0,0.0,2.261894202711332,2.26221791752557,2.261894202711332,2.2620560601183635,2.2620560601183635,2.26221791752557,2.261894202711332,2.261894202711332
44.199324,55,2.4283719615833412,1.0,0.0,2.2620560601183635,2.26221791752557,2.2620560601183635,2.2620560601183635,2.2620560601183635,2.261894202711332,2.2620560601183635,2.261894202711332
44.2005561,55,2.4283719615833412,1.0,0.0,2.26221791752557,2.2623797749329517,2.26221791752557,2.26221791752557,2.2620560601183635,2.2620560601183635,2.26221791752557,2.26221791752557
44.2017879,55,2.092581327428068,1.0,0.0,2.2623797749329517,2.26221791752557,2.2620560601183635,2.26221791752557,2.26221791752557,2.2620560601183635,2.26221791752557,2.26221791752557
44.2029349,55,2.092581327428068,1.0,0.0,2.26221791752557,2.2625416323405085,2.2625416323405085,2.26221791752557,2.26221791752557,2.2623797749329517,2.2623797749329517,2.26221791752557
44.2040815,55,1.6979394512073647,1.0,0.0,2.2627034897482408,2.26221791752557,2.2623797749329517,2.26221791752557,2.2623797749329517,2.2625416323405085,2.2625416323405085,2.2625416323405085
44.20494333333333,55,1.6979394512073647,1.0,0.0,1.1386074853792605,1.2421956173484225,1.9219940194604597,2.2586570546074447,2.260923058272817,2.26221791752557,2.2623797749329517,2.26221791752557
44.20580516666667,55,1.6979394512073647,1.0,0.0,5.310358215633014,5.310358215633014,5.310358215633014,4.6943124474045055,4.212777012370916,5.310358215633014,5.1315004923489,4.525977064133347
44.2066665,55,1.1918149547474037,1.0,0.0,5.310358215633014,5.310358215633014,5.310358215633014,5.310358215633014,5.310358215633014,5.310358215633014,5.310358215633014,5.310358215633014
44.20811155,55,1.1918149547474037,1.0,0.0,5.310358215633014,5.310358215633014,5.310358215633014,5.310358215633014,5.310358215633014,5.310358215633014,5.310358215633014,5.310358215633014
44.2095562,55,1.3450761394397865,1.0,0.0,5.310358215633014,5.310358215633014,5.310358215633014,5.310358215633014,5.310358215633014,5.310358215633014,5.310358215633014,5.310358215633014
44.21036923333333,55,1.3450761394397865,1.0,0.0,5.310358215633014,5.310358215633014,5.310358215633014,5.310358215633014,5.310358215633014,5.310358215633014,5.310358215633014,5.310358215633014
44.21118226666667,55,1.3450761394397865,1.0,0.0,1.1381219161179217,1.3317022755615315,1.0795298990537863,2.787446179948167,5.310358215633014,5.310358215633014,5.310358215633014,5.310358215633014
44.2119949,55,1.9525762157337319,1.0,0.0,2.2610849156787984,2.1657509335363385,3.7945311790984886,4.942931491112406,5.138946144778332,5.310358215633014,5.310358215633014,5.310358215633014
44.2127146,55,1.9525762157337319,1.0,0.0,2.261894202711332,2.261732345304475,2.261732345304475,2.261732345304475,2.261408630491287,2.261408630491287,2.261732345304475,2.2615704878977936
44.2134343,55,1.9525762157337319,1.0,0.0,2.261732345304475,2.2620560601183635,2.261894202711332,2.261894202711332,2.261732345304475,2.261894202711332,2.261894202711332,2.261894202711332
44.2141536,55,2.5278974132434975,1.0,0.0,2.261894202711332,2.2620560601183635,2.2620560601183635,2.26221791752557,2.2620560601183635,2.261894202711332,2.2620560601183635,2.2620560601183635
44.2152761,55,2.5278974132434975,1.0,0.0,2.261894202711332,2.2620560601183635,2.26221791752557,2.2620560601183635,2.26221791752557,2.26221791752557,2.2620560601183635,2.2620560601183635
44.2163974,55,2.208017881383146,1.0,0.0,2.2620560601183635,2.26221791752557,2.26221791752557,2.26221791752557,2.26221791752557,2.26221791752557,2.26221791752557,2.26221791752557
44.2176798,55,2.208017881383146,1.0,0.0,2.2625416323405085,2.2623797749329517,2.2623797749329517,2.26221791752557,2.26221791752557,2.26221791752557,2.2623797749329517,2.26221791752557
44.2189619,55,1.9475217418567787,1.0,0.0,2.2562291935754337,2.2601137712455337,2.2612467730849555,2.26221791752557,2.2627034897482408,2.2623797749329517,2.2625416323405085,2.2623797749329517
44.21965946666666,55,1.9475217418567787,1.0,0.0,2.26221791752557,2.2623797749329517,2.26221791752557,2.2623797749329517,2.2623797749329517,2.2623797749329517,2.2620560601183635,2.2623797749329517
44.220357033333336,55,1.9475217418567787,1.0,0.0,2.26221791752557,2.2625416323405085,2.2625416323405085,2.2623797749329517,2.2625416323405085,2.26221791752557,2.2623797749329517,2.2623797749329517
44.2210543,55,1.6376348094837319,1.0,0.0,1.1424920395053737,0.25017897618721247,-0.10558031180499408,0.9657448885195269,1.770172163865053,2.257200337983519,2.260923058272817,2.2620560601183635
44.222240150000005,55,1.6376348094837319,1.0,0.0,5.310358215633014,5.310358215633014,4.38208294792303,2.169959223514285,2.8539698458566534,1.7117418255818075,1.01462549851814,2.723674133847792
44.2234255,55,0.9945149974720131,1.0,0.0,5.310358215633014,5.310358215633014,5.310358215633014,5.310358215633014,5.310358215633014,5.310358215633014,5.310358215633014,5.310358215633014
44.225224749999995,55,0.9945149974720131,1.0,0.0,5.310358215633014,5.310358215633014,5.310358215633014,5.310358215633014,5.310358215633014,5.310358215633014,5.310358215633014,5.310358215633014
44.2270237,55,1.3689542369739662,1.0,0.0,5.310358215633014,5.310358215633014,5.310358215633014,5.310358215633014,5.310358215633014,5.310358215633014,5.310358215633014,5.310358215633014
44.2276496,55,1.3689542369739662,1.0,0.0,5.310358215633014,5.310358215633014,5.310358215633014,5.310358215633014,5.310358215633014,5.310358215633014,5.310358215633014,5.310358215633014
44.228275499999995,55,1.3689542369739662,1.0,0.0,1.133428079975597,1.5995750506725672,1.360512744739214,0.9626696186588857,0.6633974651051385,3.1524365685928224,5.2974092258419185,5.310358215633014
44.2289014,55,1.3689542369739662,1.0,0.0,2.2612467730849555,2.2612467730849555,2.2612467730849555,2.2612467730849555,2.2612467730849555,2.2612467730849555,2.261408630491287,2.2612467730849555
44.2295269,55,2.145529325474943,1.0,0.0,2.261732345304475,2.261732345304475,2.2615704878977936,2.261732345304475,2.261732345304475,2.2615704878977936,2.2615704878977936,2.261732345304475
44.23068395,55,2.145529325474943,1.0,0.0,2.261894202711332,2.2620560601183635,2.261732345304475,2.261894202711332,2.261894202711332,2.261894202711332,2.2620560601183635,2.261894202711332
44.2318407,55,2.8476377086536537,1.0,0.0,2.2620560601183635,2.261894202711332,2.261894202711332,2.261894202711332,2.26221791752557,2.2620560601183635,2.261894202711332,2.2620560601183635
44.232547933333336,55,2.8476377086536537,1.0,0.0,2.2620560601183635,2.2620560601183635,2.2620560601183635,2.2620560601183635,2.26221791752557,2.261894202711332,2.2620560601183635,2.2620560601183635
44.233255166666666,55,2.8476377086536537,1.0,0.0,2.2623797749329517,2.26221791752557,2.2620560601183635,2.26221791752557,2.26221791752557,2.2620560601183635,2.2623797749329517,2.26221791752557
44.2339621,55,2.2910810069934975,1.0,0.0,2.26221791752557,2.2623797749329517,2.2620560601183635,2.2623797749329517,2.2623797749329517,2.26221791752557,2.26221791752557,2.26221791752557
44.2351017,55,2.2910810069934975,1.0,0.0,2.2623797749329517,2.2623797749329517,2.2625416323405085,2.26221791752557,2.2623797749329517,2.2623797749329517,2.26221791752557,2.2623797749329517
44.2362409,55,0.8962483959095131,1.0,0.0,2.2625416323405085,2.2627034897482408,2.2625416323405085,2.2625416323405085,2.2623797749329517,2.2627034897482408,2.2625416323405085,2.2625416323405085
44.23744875,55,0.8962483959095131,1.0,0.0,2.2625416323405085,2.2623797749329517,2.2623797749329517,2.2625416323405085,2.2625416323405085,2.2625416323405085,2.2625416323405085,2.2625416323405085
44.2386562,55,0.7872033672229897,1.0,0.0,1.152850850816847,-0.3598558316108595,-0.7814901883924728,-0.307576401797493,1.93461887063402,3.3746685261312797,3.370945772998769,4.865561680275897
44.240764600000006,55,0.7872033672229897,1.0,0.0,5.310358215633014,5.310358215633014,5.310358215633014,5.310358215633014,5.310358215633014,1.6801797392647597,2.4383188823144053,4.433069024687076
44.2428726,55,1.1612687663929115,1.0,0.0,5.310358215633014,5.310358215633014,5.310358215633014,5.310358215633014,5.310358215633014,5.310358215633014,5.310358215633014,5.310358215633014
44.24334464,55,1.1612687663929115,1.0,0.0,5.310358215633014,5.310358215633014,5.310358215633014,5.310358215633014,5.310358215633014,5.310358215633014,5.310358215633014,5.310358215633014
44.243816679999995,55,1.1612687663929115,1.0,0.0,5.310358215633014,5.310358215633014,5.310358215633014,5.310358215633014,5.310358215633014,5.310358215633014,5.310358215633014,5.310358215633014
44.24428872,55,1.1612687663929115,1.0,0.0,1.137798203277575,0.9107137489890281,0.6044818351331708,3.6279779026021055,5.310358215633014,5.310358215633014,5.310358215633014,5.310358215633014
44.24476076,55,1.1612687663929115,1.0,0.0,2.2610849156787984,5.310358215633014,5.310358215633014,5.310358215633014,5.310358215633014,5.310358215633014,5.310358215633014,5.310358215633014
44.2452324,55,1.2781625347034584,1.0,0.0,2.2612467730849555,2.2612467730849555,2.2612467730849555,2.2612467730849555,2.2615704878977936,2.2612467730849555,2.2612467730849555,2.260923058272817
44.24643955,55,1.2781625347034584,1.0,0.0,2.261408630491287,2.261894202711332,2.2615704878977936,2.261894202711332,2.261732345304475,2.261732345304475,2.261732345304475,2.261732345304475
44.2476464,55,2.054718549718107,1.0,0.0,2.2620560601183635,2.26221791752557,2.261894202711332,2.261732345304475,2.2620560601183635,2.261894202711332,2.261732345304475,2.261732345304475
44.24896525,55,2.054718549718107,1.0,0.0,2.2620560601183635,2.261894202711332,2.2620560601183635,2.2620560601183635,2.26221791752557,2.261894202711332,2.2620560601183635,2.2620560601183635
44.2502837,55,2.1004090862171303,1.0,0.0,2.2620560601183635,2.26221791752557,2.26221791752557,2.2620560601183635,2.2620560601183635,2.26221791752557,2.2620560601183635,2.2620560601183635
44.2510797,55,2.1004090862171303,1.0,0.0,2.2623797749329517,2.2620560601183635,2.26221791752557,2.26221791752557,2.2620560601183635,2.26221791752557,2.26221791752557,2.2620560601183635
44.2518757,55,2.1004090862171303,1.0,0.0,2.2620560601183635,2.2627034897482408,2.26221791752557,2.26221791752557,2.2623797749329517,2.26221791752557,2.2623797749329517,2.2623797749329517
44.2526714,55,1.958555753697599,1.0,0.0,2.26221791752557,2.2623797749329517,2.2623797749329517,2.26221791752557,2.2620560601183635,2.2623797749329517,2.26221791752557,2.26221791752557
44.253402566666665,55,1.958555753697599,1.0,0.0,2.2623797749329517,2.2625416323405085,2.2625416323405085,2.2625416323405085,2.26221791752557,2.2623797749329517,2.2625416323405085,2.2623797749329517
44.25413373333333,55,1.958555753697599,1.0,0.0,1.147185875825201,1.2174315753484501,1.9103403115226238,2.2586570546074447,2.2612467730849555,2.2620560601183635,2.2623797749329517,2.2623797749329517
44.2548646,55,1.8777738170520912,1.0,0.0,5.310358215633014,5.310358215633014,5.310358215633014,4.500564924878366,4.226858851384709,5.152218831348139,4.6433262138067795,4.093324258556347
44.256248299999996,55,1.8777738170520912,1.0,0.0,5.310358215633014,5.310358215633014,5.310358215633014,5.310358215633014,5.310358215633014,5.310358215633014,5.310358215633014,5.310358215633014
44.2576315,55,1.3325677471058022,1.0,0.0,5.310358215633014,5.310358215633014,5.310358215633014,5.310358215633014,5.310358215633014,5.310358215633014,5.310358215633014,5.310358215633014
44.258922749999996,55,1.3325677471058022,1.0,0.0,5.310358215633014,5.310358215633014,5.310358215633014,5.310358215633014,5.310358215633014,5.310358215633014,5.310358215633014,5.310358215633014
44.2602136,55,0.6301446514026772,1.0,0.0,5.310358215633014,5.310358215633014,5.310358215633014,5.310358215633014,5.310358215633014,5.310358215633014,5.310358215633014,5.310358215633014
44.2610083,55,0.6301446514026772,1.0,0.0,1.138931198220699,1.2758617702840094,1.0194811887564408,1.4825526409028982,5.085531697747357,5.310358215633014,5.310358215633014,5.310358215633014
44.261803,55,0.6301446514026772,1.0,0.0,2.260923058272817,2.2361588772135206,3.3317759433666954,4.357156432333062,4.537307319747343,5.310358215633014,5.310358215633014,5.310358215633014
44.2625974,55,1.4825044231311928,1.0,0.0,2.2615704878977936,2.2615704878977936,2.261732345304475,2.261408630491287,2.2615704878977936,2.2615704878977936,2.261408630491287,2.261732345304475
44.263712549999994,55,1.4825044231311928,1.0,0.0,2.261894202711332,2.2620560601183635,2.261894202711332,2.261894202711332,2.261894202711332,2.261894202711332,2.2620560601183635,2.261894202711332
44.2648274,55,1.9666200237171303,1.0,0.0,2.26221791752557,2.2620560601183635,2.2620560601183635,2.2620560601183635,2.2620560601183635,2.26221791752557,2.2620560601183635,2.2620560601183635
44.26591595,55,1.9666200237171303,1.0,0.0,2.261894202711332,2.2620560601183635,2.2620560601183635,2.2620560601183635,2.26221791752557,2.2620560601183635,2.2620560601183635,2.2620560601183635
44.2670041,55,1.9749990062610756,1.0,0.0,2.2623797749329517,2.2620560601183635,2.2623797749329517,2.26221791752557,2.2620560601183635,2.26221791752557,2.26221791752557,2.26221791752557
44.26777353333333,55,1.9749990062610756,1.0,0.0,2.2623797749329517,2.26221791752557,2.26221791752557,2.2623797749329517,2.2620560601183635,2.26221791752557,2.26221791752557,2.26221791752557
44.268542966666665,55,1.9749990062610756,1.0,0.0,1.6902148635605778,2.023154712811395,2.262865347156148,2.2625416323405085,2.2625416323405085,2.2625416323405085,2.2623797749329517,2.2623797749329517
44.269312,55,1.8545251445667397,1.0,0.0,2.2623797749329517,2.2625416323405085,2.2625416323405085,2.2623797749329517,2.26221791752557,2.26221791752557,2.2623797749329517,2.2623797749329517
44.27036015,55,1.8545251445667397,1.0,0.0,2.2625416323405085,2.2623797749329517,2.2625416323405085,2.2623797749329517,2.2625416323405085,2.2623797749329517,2.2625416323405085,2.2623797749329517
44.2714079,55,1.3374257640735756,1.0,0.0,1.1361796390823893,0.2375542111572124,-0.11318753725596566,0.9553860849206983,1.7638597441375659,2.25671476577869,2.260923058272817,2.261894202711332
44.272912500000004,55,1.3374257640735756,1.0,0.0,5.310358215633014,5.310358215633014,3.3243304401396325,1.984147142129836,2.0346465715120283,0.5313228803599654,1.6958798533225212,1.993372998258509
44.2744165,55,1.3361859874622475,1.0,0.0,5.310358215633014,5.310358215633014,5.310358215633014,5.310358215633014,5.310358215633014,5.310358215633014,5.310358215633014,5.310358215633014
44.27528686666667,55,1.3361859874622475,1.0,0.0,5.310358215633014,5.310358215633014,5.310358215633014,5.310358215633014,5.310358215633014,5.310358215633014,5.310358215633014,5.310358215633014
44.27615723333333,55,1.3361859874622475,1.0,0.0,5.310358215633014,5.310358215633014,5.310358215633014,5.310358215633014,5.310358215633014,5.310358215633014,5.310358215633014,5.310358215633014
44.2770273,55,1.3580976085559975,1.0,0.0,5.310358215633014,5.310358215633014,5.310358215633014,5.310358215633014,5.310358215633014,5.310358215633014,5.310358215633014,5.310358215633014
44.277922333333336,55,1.3580976085559975,1.0,0.0,1.1379600596976938,1.4738123806908194,1.2527162896010526,0.926737520810067,0.6452695778332392,3.1543788707730567,5.293848254045619,5.310358215633014
44.278817366666665,55,1.3580976085559975,1.0,0.0,2.2610849156787984,2.2612467730849555,2.2610849156787984,2.2612467730849555,2.2612467730849555,2.2612467730849555,2.2612467730849555,2.2610849156787984
44.279712,55,2.0335336284534584,1.0,0.0,2.261408630491287,2.261732345304475,2.261732345304475,2.261732345304475,2.2615704878977936,2.2615704878977936,2.2615704878977936,2.2615704878977936
44.280878650000005,55,2.0335336284534584,1.0,0.0,2.2620560601183635,2.261894202711332,2.261894202711332,2.261732345304475,2.261732345304475,2.261732345304475,2.261894202711332,2.261894202711332
44.2820449,55,3.2517972545520912,1.0,0.0,2.2620560601183635,2.261894202711332,2.261732345304475,2.261894202711332,2.261894202711332,2.26221791752557,2.2620560601183635,2.261894202711332
44.2827707,55,3.2517972545520912,1.0,0.0,2.261894202711332,2.2620560601183635,2.26221791752557,2.2620560601183635,2.2620560601183635,2.261894202711332,2.2620560601183635,2.2620560601183635
44.283496500000005,55,3.2517972545520912,1.0,0.0,2.261894202711332,2.26221791752557,2.26221791752557,2.2620560601183635,2.2620560601183635,2.2620560601183635,2.2620560601183635,2.2620560601183635
44.2842218,55,2.065949018468107,1.0,0.0,2.2625416323405085,2.26221791752557,2.26221791752557,2.2620560601183635,2.2623797749329517,2.2623797749329517,2.26221791752557,2.26221791752557
44.285415900000004,55,2.065949018468107,1.0,0.0,2.2625416323405085,2.2623797749329517,2.2623797749329517,2.2623797749329517,2.26221791752557,2.26221791752557,2.2625416323405085,2.2623797749329517
44.2866097,55,0.6413178996936928,1.0,0.0,2.26221791752557,2.2625416323405085,2.2623797749329517,2.2623797749329517,2.2623797749329517,2.26221791752557,2.2623797749329517,2.2623797749329517
44.2875261,55,0.6413178996936928,1.0,0.0,2.2623797749329517,2.2627034897482408,2.2625416323405085,2.2627034897482408,2.2625416323405085,2.2625416323405085,2.2625416323405085,2.2623797749329517
44.2884425,55,0.6413178996936928,1.0,0.0,1.1538219894003663,-0.32716095628137243,-0.7737211103423927,0.2202356237885675,2.370014990076258,3.5116011871537394,3.71829538861621,4.884823195181069
44.2893585,55,0.5416532115833412,1.0,0.0,5.310358215633014,5.310358215633014,5.310358215633014,-0.7471767603819729,2.606650891866695,0.5070444695315545,0.9207488383017911,3.849887140166348
44.2906627,55,0.5416532115833412,1.0,0.0,5.310358215633014,5.310358215633014,5.310358215633014,5.310358215633014,5.310358215633014,5.310358215633014,5.310358215633014,5.310358215633014
44.2919666,55,1.2779851512806069,1.0,0.0,5.310358215633014,5.310358215633014,5.310358215633014,5.310358215633014,5.310358215633014,5.310358215633014,5.310358215633014,5.310358215633014
44.292692233333334,55,1.2779851512806069,1.0,0.0,5.310358215633014,5.310358215633014,5.310358215633014,5.310358215633014,5.310358215633014,5.310358215633014,5.310358215633014,5.310358215633014
44.293417866666665,55,1.2779851512806069,1.0,0.0,1.1277631054430102,0.9178354252374193,0.6198581661175594,3.157454182625392,5.310358215633014,5.310358215633014,5.310358215633014,5.310358215633014
44.2941432,55,1.315376813878263,1.0,0.0,2.2607612008670106,5.310358215633014,5.310358215633014,5.310358215633014,5.310358215633014,5.310358215633014,5.310358215633014,5.310358215633014
44.2952511,55,1.315376813878263,1.0,0.0,2.2610849156787984,2.2612467730849555,2.261408630491287,2.2610849156787984,2.2612467730849555,2.261408630491287,2.2612467730849555,2.261408630491287
44.2963587,55,1.6079927043811928,1.0,0.0,2.2615704878977936,2.261732345304475,2.261732345304475,2.261732345304475,2.261732345304475,2.261732345304475,2.261732345304475,2.261732345304475
44.2974641,55,1.6079927043811928,1.0,0.0,2.261732345304475,2.261894202711332,2.261732345304475,2.261732345304475,2.2620560601183635,2.261894202711332,2.2620560601183635,2.261894202711332
44.2985691,55,2.3544946269886147,1.0,0.0,2.261894202711332,2.2620560601183635,2.2620560601183635,2.2620560601183635,2.261732345304475,2.261894202711332,2.261894202711332,2.26221791752557
44.2996665,55,2.3544946269886147,1.0,0.0,2.26221791752557,2.2620560601183635,2.26221791752557,2.26221791752557,2.2620560601183635,2.26221791752557,2.2620560601183635,2.2620560601183635
44.3007636,55,2.1976342754261147,1.0,0.0,2.26221791752557,2.26221791752557,2.2620560601183635,2.2620560601183635,2.26221791752557,2.2623797749329517,2.2620560601183635,2.2620560601183635
44.30152723333334,55,2.1976342754261147,1.0,0.0,2.262865347156148,2.2623797749329517,2.2623797749329517,2.26221791752557,2.26221791752557,2.26221791752557,2.2623797749329517,2.26221791752557
44.30229086666667,55,2.1976342754261147,1.0,0.0,2.2623797749329517,2.2625416323405085,2.2623797749329517,2.26221791752557,2.2623797749329517,2.26221791752557,2.2623797749329517,2.26221791752557
44.3030542,55,1.5919232921497475,1.0,0.0,2.26221791752557,2.2623797749329517,2.2623797749329517,2.2625416323405085,2.2623797749329517,2.2623797749329517,2.2623797749329517,2.26221791752557
44.304094649999996,55,1.5919232921497475,1.0,0.0,1.1128723158762481,1.021261608533521,1.799630125543089,2.2563910509763443,2.2607612008670106,2.2620560601183635,2.2623797749329517,2.26221791752557
44.3051348,55,1.323618467320646,1.0,0.0,5.310358215633014,5.310358215633014,5.310358215633014,4.192382628715547,5.237196452911561,3.989895779024365,5.183296350435365,5.288830521349703
44.3063829,55,1.323618467320646,1.0,0.0,5.310358215633014,5.310358215633014,5.310358215633014,5.310358215633014,5.310358215633014,5.310358215633014,5.310358215633014,5.310358215633014
44.3076307,55,1.3936601238147865,1.0,0.0,5.310358215633014,5.310358215633014,5.310358215633014,5.310358215633014,5.310358215633014,5.310358215633014,5.310358215633014,5.310358215633014
44.3088134,55,1.3936601238147865,1.0,0.0,5.310358215633014,5.310358215633014,5.310358215633014,5.310358215633014,5.310358215633014,5.310358215633014,5.310358215633014,5.310358215633014
44.3099958,55,1.4181676463977944,1.0,0.0,5.310358215633014,5.310358215633014,5.310358215633014,5.310358215633014,5.310358215633014,5.310358215633014,5.310358215633014,5.310358215633014
44.31070756666667,55,1.4181676463977944,1.0,0.0,1.1170805824002221,1.2684163706432359,1.0406843705449875,1.877159619683678,5.310358215633014,5.310358215633014,5.310358215633014,5.310358215633014
44.31141933333333,55,1.4181676463977944,1.0,0.0,2.2612467730849555,2.2652932082957715,2.9415351147131807,3.5104681738708714,3.8782125709471313,4.816355814489448,4.527271950412845,5.310358215633014
44.3121308,55,1.6291375713245522,1.0,0.0,2.261732345304475,2.261732345304475,2.261732345304475,2.2615704878977936,2.261732345304475,2.261732345304475,2.261408630491287,2.2615704878977936
44.31319815,55,1.6291375713245522,1.0,0.0,2.261732345304475,2.261732345304475,2.261732345304475,2.261732345304475,2.261894202711332,2.261732345304475,2.261894202711332,2.2620560601183635
44.3142651,55,2.1237950878040444,1.0,0.0,2.2620560601183635,2.2620560601183635,2.2620560601183635,2.2620560601183635,2.261894202711332,2.261894202711332,2.261894202711332,2.2620560601183635
44.31542065,55,2.1237950878040444,1.0,0.0,2.26221791752557,2.26221791752557,2.2620560601183635,2.26221791752557,2.2620560601183635,2.2620560601183635,2.2620560601183635,2.26221791752557
44.3165759,55,2.1502118663684975,1.0,0.0,2.26221791752557,2.26221791752557,2.2620560601183635,2.26221791752557,2.2620560601183635,2.26221791752557,2.26221791752557,2.26221791752557
44.3177928,55,2.1502118663684975,1.0,0.0,2.26221791752557,2.2623797749329517,2.2623797749329517,2.26221791752557,2.2620560601183635,2.26221791752557,2.26221791752557,2.2623797749329517
44.3190094,55,2.0258241252796303,1.0,0.0,1.6974984218578362,2.204920406242464,2.261732345304475,2.26221791752557,2.2623797749329517,2.2623797749329517,2.2625416323405085,2.26221791752557
44.3197065,55,2.0258241252796303,1.0,0.0,2.2625416323405085,2.2623797749329517,2.2625416323405085,2.2623797749329517,2.2623797749329517,2.26221791752557,2.2623797749329517,2.2623797749329517
44.3204036,55,2.0258241252796303,1.0,0.0,2.2627034897482408,2.26221791752557,2.2623797749329517,2.2625416323405085,2.2623797749329517,2.2623797749329517,2.2623797749329517,2.2623797749329517
44.3211004,55,1.6597829418079506,1.0,0.0,1.0979815272209874,0.2066397238691267,-0.13180096090007876,0.900678660044679,1.7308409368574742,2.2546106195759337,2.2607612008670106,2.2620560601183635
44.322286899999995,55,1.6597829418079506,1.0,0.0,5.310358215633014,5.310358215633014,3.0200363795855116,3.370622055341075,0.9853295026843881,0.391479255701431,2.676249764609182,0.8891868650902686
44.3234731,55,1.7156034068958412,1.0,0.0,5.310358215633014,5.310358215633014,5.310358215633014,5.310358215633014,5.310358215633014,5.310358215633014,5.310358215633014,5.310358215633014
44.3247082,55,1.7156034068958412,1.0,0.0,5.310358215633014,5.310358215633014,5.310358215633014,5.310358215633014,5.310358215633014,5.310358215633014,5.310358215633014,5.310358215633014
44.325943,55,1.7151704387561928,1.0,0.0,5.310358215633014,5.310358215633014,5.310358215633014,5.310358215633014,5.310358215633014,5.310358215633014,5.310358215633014,5.310358215633014
44.32668116666667,55,1.7151704387561928,1.0,0.0,4.076652680572519,5.310358215633014,5.310358215633014,5.310358215633014,5.310358215633014,5.310358215633014,5.310358215633014,5.310358215633014
44.32741933333334,55,1.7151704387561928,1.0,0.0,1.089888707679328,1.5244735238565257,1.2350739317924557,0.8747816580035142,0.6167828998640545,2.397207057010062,4.788030083011711,5.310358215633014
44.3281572,55,1.866465147008146,1.0,0.0,2.261732345304475,2.2612467730849555,2.2612467730849555,2.2612467730849555,2.2612467730849555,2.261408630491287,2.2612467730849555,2.2612467730849555
44.32926965,55,1.866465147008146,1.0,0.0,2.261732345304475,2.261732345304475,2.261732345304475,2.261732345304475,2.261732345304475,2.2615704878977936,2.261732345304475,2.2615704878977936
44.3303817,55,2.237049634923185,1.0,0.0,2.2620560601183635,2.261894202711332,2.261894202711332,2.261894202711332,2.261894202711332,2.261894202711332,2.261894202711332,2.261732345304475
44.331627299999994,55,2.237049634923185,1.0,0.0,2.261894202711332,2.261894202711332,2.2620560601183635,2.2620560601183635,2.261732345304475,2.26221791752557,2.261894202711332,2.261732345304475
44.3328726,55,1.4666715221302162,1.0,0.0,2.2620560601183635,2.2620560601183635,2.26221791752557,2.2620560601183635,2.2620560601183635,2.26221791752557,2.2620560601183635,2.261894202711332
44.333594,55,1.4666715221302162,1.0,0.0,2.2620560601183635,2.2620560601183635,2.26221791752557,2.2620560601183635,2.2620560601183635,2.2620560601183635,2.2620560601183635,2.261894202711332
44.3343154,55,1.4666715221302162,1.0,0.0,2.2623797749329517,2.2623797749329517,2.26221791752557,2.26221791752557,2.26221791752557,2.26221791752557,2.26221791752557,2.26221791752557
44.3350365,55,0.5436788158313881,1.0,0.0,2.26221791752557,2.2623797749329517,2.2623797749329517,2.2623797749329517,2.2623797749329517,2.2623797749329517,2.2623797749329517,2.2623797749329517
44.33612645,55,0.5436788158313881,1.0,0.0,2.2623797749329517,2.2625416323405085,2.26221791752557,2.2625416323405085,2.26221791752557,2.2623797749329517,2.2623797749329517,2.2623797749329517
44.3372161,55,0.12221008109017717,1.0,0.0,2.2625416323405085,2.2623797749329517,2.26221791752557,2.2623797749329517,2.2625416323405085,2.26221791752557,2.2625416323405085,2.2623797749329517
44.3384003,55,0.12221008109017717,1.0,0.0,4.830599614644894,-0.36972903636216337,-0.2565918160910709,0.9257663830970342,1.6531496490922029,4.620018231721094,3.6490196036552027,3.7521240018324344
44.3395842,55,1.649790342320646,1.0,0.0,5.310358215633014,5.310358215633014,5.310358215633014,5.310358215633014,5.310358215633014,2.459198514696415,2.8931395148203425,3.9795367513380513
44.340935099999996,55,1.649790342320646,1.0,0.0,5.310358215633014,5.310358215633014,5.310358215633014,5.310358215633014,5.310358215633014,5.310358215633014,5.310358215633014,5.310358215633014
44.3422856,55,1.869394834508146,1.0,0.0,5.310358215633014,5.310358215633014,5.310358215633014,5.310358215633014,5.310358215633014,5.310358215633014,5.310358215633014,5.310358215633014
44.343021199999995,55,1.869394834508146,1.0,0.0,5.310358215633014,5.310358215633014,5.310358215633014,5.310358215633014,5.310358215633014,5.310358215633014,5.310358215633014,5.310358215633014
44.3437568,55,1.869394834508146,1.0,0.0,1.0848711596970897,1.048777188488529,0.7394698604728096,3.6987104072221433,5.310358215633014,5.310358215633014,5.310358215633014,5.310358215633014
44.3444921,55,1.108713682164396,1.0,0.0,2.2601137712455337,5.310358215633014,5.310358215633014,5.310358215633014,5.310358215633014,5.310358215633014,5.310358215633014,5.310358215633014
44.34567835,55,1.108713682164396,1.0,0.0,2.2612467730849555,2.261408630491287,2.261408630491287,2.2612467730849555,2.2612467730849555,2.2612467730849555,2.2612467730849555,2.2612467730849555
44.346864,55,1.1194329814808022,1.0,0.0,2.2615704878977936,2.261732345304475,2.261732345304475,2.2615704878977936,2.261732345304475,2.2615704878977936,2.261894202711332,2.261732345304475
44.34807605,55,1.1194329814808022,1.0,0.0,2.261894202711332,2.261732345304475,2.2620560601183635,2.261894202711332,2.261894202711332,2.261894202711332,2.2620560601183635,2.261894202711332
44.3492878,55,1.1417966442005287,1.0,0.0,2.2620560601183635,2.2620560601183635,2.2620560601183635,2.2620560601183635,2.2620560601183635,2.2620560601183635,2.261894202711332,2.2620560601183635
44.35001833333333,55,1.1417966442005287,1.0,0.0,2.2620560601183635,2.26221791752557,2.2620560601183635,2.2620560601183635,2.2620560601183635,2.26221791752557,2.2620560601183635,2.26221791752557
44.35074886666667,55,1.1417966442005287,1.0,0.0,2.2620560601183635,2.26221791752557,2.261894202711332,2.2620560601183635,2.2620560601183635,2.26221791752557,2.26221791752557,2.26221791752557
44.3514791,55,1.2280850963489662,1.0,0.0,2.261732345304475,2.2625416323405085,2.2623797749329517,2.2623797749329517,2.2623797749329517,2.2620560601183635,2.2623797749329517,2.2620560601183635
44.352651449999996,55,1.2280850963489662,1.0,0.0,2.26221791752557,2.2625416323405085,2.2623797749329517,2.2623797749329517,2.2623797749329517,2.2623797749329517,2.2623797749329517,2.26221791752557
44.3538234,55,0.9932370738880287,1.0,0.0,2.2625416323405085,2.2625416323405085,2.26221791752557,2.2623797749329517,2.2623797749329517,2.26221791752557,2.26221791752557,2.2623797749329517
44.35466096666667,55,0.9932370738880287,1.0,0.0,1.0808247501082429,1.002000704327257,1.7886238535765153,2.2555817639735376,2.2607612008670106,2.2620560601183635,2.2623797749329517,2.2625416323405085
44.35549853333333,55,0.9932370738880287,1.0,0.0,5.310358215633014,5.310358215633014,4.756952720429951,5.310358215633014,3.9947515736418104,4.283186229469781,5.310358215633014,5.310358215633014
44.3563357,55,1.5549073772327553,1.0,0.0,5.310358215633014,5.310358215633014,5.310358215633014,5.310358215633014,5.310358215633014,5.310358215633014,5.310358215633014,5.310358215633014
44.3575515,55,1.5549073772327553,1.0,0.0,5.310358215633014,5.310358215633014,5.310358215633014,5.310358215633014,5.310358215633014,5.310358215633014,5.310358215633014,5.310358215633014
44.3587669,55,1.6264825420276772,1.0,0.0,5.310358215633014,5.310358215633014,5.310358215633014,5.310358215633014,5.310358215633014,5.310358215633014,5.310358215633014,5.310358215633014
44.360045,55,1.6264825420276772,1.0,0.0,5.310358215633014,5.310358215633014,5.310358215633014,5.310358215633014,5.310358215633014,5.310358215633014,5.310358215633014,5.310358215633014
44.3613226,55,1.6730390148059975,1.0,0.0,1.088432000190098,1.2455946037151215,1.0115502280813482,1.4268739526083303,5.2056333251605045,5.310358215633014,5.310358215633014,5.310358215633014
44.362140333333336,55,1.6730390148059975,1.0,0.0,2.2612467730849555,2.261732345304475,2.276137655201275,3.4135146533796163,3.596739077446067,4.009804538539178,4.559482252968218,4.918814115205489
44.362958066666664,55,1.6730390148059975,1.0,0.0,2.261732345304475,2.261732345304475,2.2615704878977936,2.2615704878977936,2.2615704878977936,2.261732345304475,2.261732345304475,2.261732345304475
44.3637755,55,1.918568189610685,1.0,0.0,2.261732345304475,2.2620560601183635,2.261894202711332,2.261732345304475,2.261894202711332,2.261894202711332,2.261894202711332,2.261894202711332
44.36475296666667,55,1.918568189610685,1.0,0.0,2.2620560601183635,2.2620560601183635,2.2620560601183635,2.2620560601183635,2.2620560601183635,2.2620560601183635,2.261894202711332,2.2620560601183635
44.36573043333333,55,1.918568189610685,1.0,0.0,2.2620560601183635,2.2620560601183635,2.26221791752557,2.2620560601183635,2.2620560601183635,2.2620560601183635,2.26221791752557,2.2620560601183635
44.3667075,55,1.845457609166349,1.0,0.0,2.261894202711332,2.2620560601183635,2.26221791752557,2.26221791752557,2.26221791752557,2.26221791752557,2.26221791752557,2.26221791752557
44.3675156,55,1.845457609166349,1.0,0.0,2.2623797749329517,2.2623797749329517,2.2623797749329517,2.2620560601183635,2.26221791752557,2.2620560601183635,2.2623797749329517,2.26221791752557
44.3683237,55,1.845457609166349,1.0,0.0,1.6094483139018956,2.2377774510145167,2.260275628650641,2.261894202711332,2.26221791752557,2.2623797749329517,2.2623797749329517,2.2623797749329517
44.3691314,55,2.2674985484974037,1.0,0.0,2.2623797749329517,2.2623797749329517,2.2623797749329517,2.2623797749329517,2.2623797749329517,2.2623797749329517,2.2623797749329517,2.2623797749329517
44.3703294,55,2.2674985484974037,1.0,0.0,2.2623797749329517,2.2623797749329517,2.2623797749329517,2.2623797749329517,2.2623797749329517,2.2623797749329517,2.2623797749329517,2.2625416323405085
44.3715271,55,1.6136193828479897,1.0,0.0,1.0787206171481876,0.16002521274820408,-0.16336285212412263,0.8108484444074392,1.6758096046602546,2.240529026516064,2.260599343461379,2.261894202711332
44.37362175,55,1.6136193828479897,1.0,0.0,5.310358215633014,5.310358215633014,3.3560547617374716,0.6525531038474979,1.8009249811134869,0.11567668880127464,-0.3520867524065186,1.502622869486641
44.3757155,55,1.6459355907337319,1.0,0.0,5.310358215633014,5.310358215633014,5.310358215633014,5.310358215633014,5.310358215633014,5.310358215633014,5.310358215633014,5.310358215633014
44.376386749999995,55,1.6459355907337319,1.0,0.0,5.310358215633014,5.310358215633014,5.310358215633014,5.310358215633014,5.310358215633014,5.310358215633014,5.310358215633014,5.310358215633014
44.377058,55,1.6459355907337319,1.0,0.0,5.310358215633014,5.310358215633014,5.310358215633014,5.310358215633014,5.310358215633014,5.310358215633014,5.310358215633014,5.310358215633014
44.37772925,55,1.6459355907337319,1.0,0.0,5.310358215633014,5.310358215633014,5.310358215633014,5.310358215633014,5.310358215633014,5.310358215633014,5.310358215633014,5.310358215633014
44.3784,55,1.800730283726896,1.0,0.0,1.0861660107795124,1.4862753444410242,1.2264955381224751,0.8511506457357904,0.5845735339543641,2.6623299871362605,4.996831425047618,5.310358215633014
44.37918593333333,55,1.800730283726896,1.0,0.0,2.2610849156787984,2.2612467730849555,2.261408630491287,2.260923058272817,2.2610849156787984,2.2612467730849555,2.2610849156787984,2.2612467730849555
44.379971866666665,55,1.800730283726896,1.0,0.0,2.261408630491287,2.261732345304475,2.261732345304475,2.261732345304475,2.2615704878977936,2.2615704878977936,2.2615704878977936,2.2615704878977936
44.3807574,55,2.237719114293302,1.0,0.0,2.261894202711332,2.2620560601183635,2.261732345304475,2.261732345304475,2.261894202711332,2.261732345304475,2.261894202711332,2.261732345304475
44.38199075,55,2.237719114293302,1.0,0.0,2.261732345304475,2.2620560601183635,2.2620560601183635,2.2620560601183635,2.261894202711332,2.261894202711332,2.2620560601183635,2.261894202711332
44.3832238,55,2.029501493443693,1.0,0.0,2.26221791752557,2.26221791752557,2.26221791752557,2.26221791752557,2.2620560601183635,2.2620560601183635,2.2620560601183635,2.261894202711332
44.383950866666666,55,2.029501493443693,1.0,0.0,2.2620560601183635,2.2620560601183635,2.26221791752557,2.26221791752557,2.26221791752557,2.26221791752557,2.2620560601183635,2.2620560601183635
44.384677933333336,55,2.029501493443693,1.0,0.0,2.2625416323405085,2.26221791752557,2.26221791752557,2.2623797749329517,2.26221791752557,2.2620560601183635,2.2623797749329517,2.26221791752557
44.3854047,55,1.8356233196155678,1.0,0.0,2.2623797749329517,2.2623797749329517,2.2625416323405085,2.2623797749329517,2.2623797749329517,2.26221791752557,2.2623797749329517,2.2623797749329517
44.386513050000005,55,1.8356233196155678,1.0,0.0,2.2623797749329517,2.2623797749329517,2.2623797749329517,2.2623797749329517,2.2625416323405085,2.26221791752557,2.2625416323405085,2.26221791752557
44.3876211,55,1.1299958782093178,1.0,0.0,2.2625416323405085,2.2625416323405085,2.2625416323405085,2.2623797749329517,2.2623797749329517,2.2625416323405085,2.2625416323405085,2.2625416323405085
44.388450399999996,55,1.1299958782093178,1.0,0.0,4.466088595148278,-0.37134759451067967,-0.4077651523233423,1.4734886673568561,3.1537314367093416,3.243562948078555,4.316043883076564,4.1210023218299625
44.3892797,55,1.1299958782093178,1.0,0.0,5.310358215633014,5.310358215633014,5.310358215633014,5.310358215633014,5.310358215633014,5.310358215633014,3.350713421235273,3.8260937846584557
44.3901087,55,1.4987702922718178,1.0,0.0,5.310358215633014,5.310358215633014,5.310358215633014,5.310358215633014,5.310358215633014,5.310358215633014,5.310358215633014,5.310358215633014
44.39155855,55,1.4987702922718178,1.0,0.0,5.310358215633014,5.310358215633014,5.310358215633014,5.310358215633014,5.310358215633014,5.310358215633014,5.310358215633014,5.310358215633014
44.393008,55,1.8693757610218178,1.0,0.0,5.310358215633014,5.310358215633014,5.310358215633014,5.310358215633014,5.310358215633014,5.310358215633014,5.310358215633014,5.310358215633014
44.393781000000004,55,1.8693757610218178,1.0,0.0,1.0861660107795124,1.008151245009733,0.6671201563671812,3.6878658323816995,5.310358215633014,5.310358215633014,5.310358215633014,5.310358215633014
44.394554,55,1.8693757610218178,1.0,0.0,2.260599343461379,5.310358215633014,5.310358215633014,5.310358215633014,5.310358215633014,5.310358215633014,5.310358215633014,5.310358215633014
44.3953266,55,1.848763044347013,1.0,0.0,2.2610849156787984,2.261408630491287,2.261408630491287,2.261408630491287,2.2615704878977936,2.261408630491287,2.2615704878977936,2.261408630491287
44.3965017,55,1.848763044347013,1.0,0.0,2.261732345304475,2.261894202711332,2.261732345304475,2.261732345304475,2.2615704878977936,2.2615704878977936,2.261732345304475,2.2615704878977936
44.3976764,55,2.062368925084318,1.0,0.0,2.261894202711332,2.2620560601183635,2.261732345304475,2.261894202711332,2.261894202711332,2.261894202711332,2.261894202711332,2.261732345304475
44.39849623333333,55,2.062368925084318,1.0,0.0,2.261894202711332,2.2620560601183635,2.2620560601183635,2.2620560601183635,2.2620560601183635,2.261894202711332,2.2620560601183635,2.261894202711332
44.39931606666667,55,2.062368925084318,1.0,0.0,2.261894202711332,2.26221791752557,2.26221791752557,2.2620560601183635,2.2620560601183635,2.2620560601183635,2.2620560601183635,2.26221791752557
44.4001355,55,1.7860379772083412,1.0,0.0,2.26221791752557,2.26221791752557,2.2620560601183635,2.26221791752557,2.26221791752557,2.26221791752557,2.2620560601183635,2.26221791752557
44.40130995,55,1.7860379772083412,1.0,0.0,2.2620560601183635,2.26221791752557,2.26221791752557,2.26221791752557,2.26221791752557,2.2623797749329517,2.26221791752557,2.26221791752557
44.4024841,55,1.4396844463245522,1.0,0.0,2.2623797749329517,2.2623797749329517,2.2623797749329517,2.26221791752557,2.2623797749329517,2.2623797749329517,2.2623797749329517,2.2623797749329517
44.4035936,55,1.4396844463245522,1.0,0.0,2.2625416323405085,2.2625416323405085,2.2623797749329517,2.2623797749329517,2.2623797749329517,2.2625416323405085,2.2625416323405085,2.2623797749329517
44.4047029,55,0.8749471263782631,1.0,0.0,1.0874608618687267,0.9019735102104242,1.740714207030469,2.2426331725217232,2.2607612008670106,2.261732345304475,2.2623797749329517,2.2623797749329517
44.406028199999994,55,0.8749471263782631,1.0,0.0,5.310358215633014,5.310358215633014,5.310358215633014,3.9518587297720154,3.882582781002041,5.310358215633014,3.853933629773956,5.310358215633014
44.4073532,55,1.1965756969349037,1.0,0.0,5.310358215633014,5.310358215633014,5.310358215633014,5.310358215633014,5.310358215633014,5.310358215633014,5.310358215633014,5.310358215633014
44.408249500000004,55,1.1965756969349037,1.0,0.0,5.310358215633014,5.310358215633014,5.310358215633014,5.310358215633014,5.310358215633014,5.310358215633014,5.310358215633014,5.310358215633014
44.4091458,55,1.1965756969349037,1.0,0.0,5.310358215633014,5.310358215633014,5.310358215633014,5.310358215633014,5.310358215633014,5.310358215633014,5.310358215633014,5.310358215633014
44.4100418,55,1.8999028758899819,1.0,0.0,5.310358215633014,5.310358215633014,5.310358215633014,5.310358215633014,5.310358215633014,5.310358215633014,5.310358215633014,5.310358215633014
44.41096206666667,55,1.8999028758899819,1.0,0.0,1.0895649949031994,1.2397677699747665,1.0287070004628718,1.4157058454281133,5.151733245213334,5.310358215633014,5.310358215633014,5.310358215633014
44.41188233333333,55,1.8999028758899819,1.0,0.0,2.2610849156787984,2.261408630491287,2.2173834223877242,2.799423674387144,2.8960529617667237,3.253598184398186,3.812335724581769,4.026314244735074
44.4128023,55,1.3285546855823647,1.0,0.0,2.2615704878977936,2.2615704878977936,2.2615704878977936,2.261894202711332,2.2615704878977936,2.2615704878977936,2.261732345304475,2.2615704878977936
44.413489133333336,55,1.3285546855823647,1.0,0.0,2.261732345304475,2.2620560601183635,2.261894202711332,2.261894202711332,2.261732345304475,2.261894202711332,2.261732345304475,2.261732345304475
44.41417596666667,55,1.3285546855823647,1.0,0.0,2.2620560601183635,2.2620560601183635,2.2620560601183635,2.2620560601183635,2.2620560601183635,2.261894202711332,2.2620560601183635,2.261894202711332
44.4148625,55,1.4569936351673256,1.0,0.0,2.2620560601183635,2.26221791752557,2.2620560601183635,2.2620560601183635,2.2620560601183635,2.26221791752557,2.26221791752557,2.2620560601183635
44.416558249999994,55,1.4569936351673256,1.0,0.0,2.26221791752557,2.26221791752557,2.26221791752557,2.2620560601183635,2.26221791752557,2.26221791752557,2.2620560601183635,2.26221791752557
44.4182537,55,2.0785375194446694,1.0,0.0,2.26221791752557,2.26221791752557,2.26221791752557,2.26221791752557,2.2623797749329517,2.2623797749329517,2.26221791752557,2.26221791752557
44.418955733333334,55,2.0785375194446694,1.0,0.0,2.2890862495557003,2.260923058272817,2.261894202711332,2.2620560601183635,2.2623797749329517,2.2623797749329517,2.2623797749329517,2.2623797749329517
44.41965776666667,55,2.0785375194446694,1.0,0.0,2.2623797749329517,2.2625416323405085,2.2623797749329517,2.2625416323405085,2.26221791752557,2.2625416323405085,2.2623797749329517,2.2623797749329517
44.4203595,55,1.898171003331388,1.0,0.0,2.2623797749329517,2.2623797749329517,2.2625416323405085,2.2623797749329517,2.2623797749329517,2.2625416323405085,2.2623797749329517,2.2623797749329517
44.42187115,55,1.898171003331388,1.0,0.0,1.0775876224847882,0.19045412922850408,-0.15446078037004868,0.7695751114790396,1.6505599400588389,2.2342165886752308,2.260599343461379,2.261732345304475
44.4233824,55,1.1308808879749428,1.0,0.0,5.310358215633014,5.310358215633014,3.9092896245109654,1.2975505445679525,1.5890543609040098,1.2464038861908857,0.02859821074786655,1.2145181588183982
44.4242182,55,1.1308808879749428,1.0,0.0,5.310358215633014,5.310358215633014,5.310358215633014,5.310358215633014,5.310358215633014,5.310358215633014,5.310358215633014,5.310358215633014
44.425054,55,1.1308808879749428,1.0,0.0,5.310358215633014,5.310358215633014,5.310358215633014,5.310358215633014,5.310358215633014,5.310358215633014,5.310358215633014,5.310358215633014
44.4258894,55,1.0365472392933022,1.0,0.0,5.310358215633014,5.310358215633014,5.310358215633014,5.310358215633014,5.310358215633014,5.310358215633014,5.310358215633014,5.310358215633014
44.427200033333335,55,1.0365472392933022,1.0,0.0,0.3620214615676486,4.7087180873565995,5.310358215633014,5.310358215633014,5.310358215633014,5.310358215633014,5.310358215633014,5.310358215633014
44.42851066666667,55,1.0365472392933022,1.0,0.0,1.090859846010266,1.4268739526083303,1.2162985800268287,0.9204251257375413,0.6745655390208212,2.2610849156787984,4.693017558543387,5.310358215633014
44.429821,55,1.8508668498890053,1.0,0.0,2.2612467730849555,2.2612467730849555,2.2612467730849555,2.2612467730849555,2.2612467730849555,2.2610849156787984,2.2610849156787984,2.2612467730849555
44.430390175,55,1.8508668498890053,1.0,0.0,2.261408630491287,2.261732345304475,2.2615704878977936,2.2615704878977936,2.261732345304475,2.261732345304475,2.261732345304475,2.261732345304475
44.430959349999995,55,1.8508668498890053,1.0,0.0,2.2615704878977936,2.2620560601183635,2.261894202711332,2.261894202711332,2.261894202711332,2.261894202711332,2.261894202711332,2.2620560601183635
44.431528525,55,1.8508668498890053,1.0,0.0,2.2620560601183635,2.2620560601183635,2.261894202711332,2.2620560601183635,2.261894202711332,2.261894202711332,2.2620560601183635,2.261894202711332
44.4320974,55,1.7385564403431069,1.0,0.0,2.2620560601183635,2.26221791752557,2.261894202711332,2.2620560601183635,2.2620560601183635,2.2620560601183635,2.2620560601183635,2.261894202711332
44.43343045,55,1.7385564403431069,1.0,0.0,2.2625416323405085,2.2620560601183635,2.26221791752557,2.26221791752557,2.261894202711332,2.2623797749329517,2.2623797749329517,2.26221791752557
44.4347632,55,1.0097585277454506,1.0,0.0,2.261894202711332,2.26221791752557,2.2620560601183635,2.26221791752557,2.26221791752557,2.26221791752557,2.26221791752557,2.2623797749329517
44.4356593,55,1.0097585277454506,1.0,0.0,2.2625416323405085,2.26221791752557,2.2623797749329517,2.26221791752557,2.26221791752557,2.2623797749329517,2.26221791752557,2.2625416323405085
44.4365554,55,1.0097585277454506,1.0,0.0,2.26221791752557,2.2625416323405085,2.2623797749329517,2.2625416323405085,2.2623797749329517,2.2623797749329517,2.2625416323405085,2.2625416323405085
44.437451,55,1.1637273387806069,1.0,0.0,2.2623797749329517,2.2623797749329517,2.2625416323405085,2.2623797749329517,2.26221791752557,2.2623797749329517,2.2623797749329517,2.2625416323405085
44.43909855,55,1.1637273387806069,1.0,0.0,4.2924122689128925,0.08411478533551942,0.46156291759204493,2.0663705800544085,2.500634073445725,4.0183831110054795,4.334172248893982,3.575697387067167
44.4407447,55,1.3181691722767006,1.0,0.0,5.310358215633014,5.310358215633014,5.310358215633014,5.310358215633014,5.310358215633014,5.21421202011007,5.310358215633014,1.9956389980885187
44.44205133333334,55,1.3181691722767006,1.0,0.0,5.310358215633014,5.310358215633014,5.310358215633014,5.310358215633014,5.310358215633014,5.310358215633014,5.310358215633014,5.310358215633014
44.44335796666667,55,1.3181691722767006,1.0,0.0,5.310358215633014,5.310358215633014,5.310358215633014,5.310358215633014,5.310358215633014,5.310358215633014,5.310358215633014,5.310358215633014
44.4446642,55,1.0487027721302162,1.0,0.0,5.310358215633014,5.310358215633014,5.310358215633014,5.310358215633014,5.310358215633014,5.310358215633014,5.310358215633014,5.310358215633014
44.445277425,55,1.0487027721302162,1.0,0.0,1.083414452237477,1.0304874203042442,0.6849243325668938,3.9413378464864035,5.310358215633014,5.310358215633014,5.310358215633014,5.310358215633014
44.445890649999996,55,1.0487027721302162,1.0,0.0,2.2607612008670106,5.310358215633014,5.310358215633014,5.310358215633014,5.310358215633014,5.310358215633014,5.310358215633014,5.310358215633014
44.446503875,55,1.0487027721302162,1.0,0.0,2.2612467730849555,2.2615704878977936,2.2612467730849555,2.2612467730849555,2.261408630491287,2.261408630491287,2.2612467730849555,2.261408630491287
44.4471167,55,1.0179792003528725,1.0,0.0,2.2615704878977936,2.261732345304475,2.261732345304475,2.261732345304475,2.261732345304475,2.261894202711332,2.261732345304475,2.261732345304475
44.44811906666667,55,1.0179792003528725,1.0,0.0,2.2615704878977936,2.261732345304475,2.261732345304475,2.261894202711332,2.261732345304475,2.261894202711332,2.261894202711332,2.261894202711332
44.44912143333333,55,1.0179792003528725,1.0,0.0,2.2620560601183635,2.2620560601183635,2.2620560601183635,2.2620560601183635,2.2620560601183635,2.2620560601183635,2.2620560601183635,2.261894202711332
44.4501233,55,1.7196355419056069,1.0,0.0,2.261894202711332,2.26221791752557,2.2620560601183635,2.26221791752557,2.2620560601183635,2.26221791752557,2.2620560601183635,2.2620560601183635
44.45089956666667,55,1.7196355419056069,1.0,0.0,2.26221791752557,2.2620560601183635,2.2620560601183635,2.26221791752557,2.2620560601183635,2.26221791752557,2.26221791752557,2.2620560601183635
44.45167583333333,55,1.7196355419056069,1.0,0.0,2.262865347156148,2.26221791752557,2.26221791752557,2.26221791752557,2.26221791752557,2.2623797749329517,2.26221791752557,2.26221791752557
44.4524519,55,1.5600801067249428,1.0,0.0,2.26221791752557,2.2623797749329517,2.2625416323405085,2.2623797749329517,2.2623797749329517,2.2623797749329517,2.2623797749329517,2.2623797749329517
44.45391015,55,1.5600801067249428,1.0,0.0,2.2623797749329517,2.2625416323405085,2.2623797749329517,2.2623797749329517,2.26221791752557,2.2623797749329517,2.2623797749329517,2.2623797749329517
44.4553681,55,1.7953019695179115,1.0,0.0,1.0942588301987284,0.688647024080031,1.6251484220534438,2.1908388177965725,2.260437486055922,2.261894202711332,2.2623797749329517,2.2625416323405085
44.45623343333333,55,1.7953019695179115,1.0,0.0,5.310358215633014,5.310358215633014,5.310358215633014,4.216176076759659,5.191551318585949,3.9610847360677712,5.286402586295883,4.62940616816715
44.45709876666667,55,1.7953019695179115,1.0,0.0,5.310358215633014,5.310358215633014,5.310358215633014,5.310358215633014,5.310358215633014,5.310358215633014,5.310358215633014,5.310358215633014
44.4579636,55,1.8513398723499428,1.0,0.0,5.310358215633014,5.310358215633014,5.310358215633014,5.310358215633014,5.310358215633014,5.310358215633014,5.310358215633014,5.310358215633014
44.45879823333333,55,1.8513398723499428,1.0,0.0,5.310358215633014,5.310358215633014,5.310358215633014,5.310358215633014,5.310358215633014,5.310358215633014,5.310358215633014,5.310358215633014
44.45963286666667,55,1.8513398723499428,1.0,0.0,5.310358215633014,5.310358215633014,5.310358215633014,5.310358215633014,5.310358215633014,5.310358215633014,5.310358215633014,5.310358215633014
44.4604672,55,1.7322831706897865,1.0,0.0,1.0905361332328614,1.262913249328533,1.0243368790867373,0.7885122870474022,4.132332525563085,5.310358215633014,5.310358215633014,5.310358215633014
44.46166255,55,1.7322831706897865,1.0,0.0,2.2607612008670106,2.2654550657064814,2.1663983627562566,2.1222113246865604,2.315792728987472,3.1992136885675166,2.9030128630837297,3.5300531194753226
44.4628575,55,1.765602643956388,1.0,0.0,2.2615704878977936,2.261732345304475,2.261732345304475,2.2615704878977936,2.2615704878977936,2.2615704878977936,2.2615704878977936,2.261408630491287
44.46357363333333,55,1.765602643956388,1.0,0.0,2.2615704878977936,2.261732345304475,2.261732345304475,2.261894202711332,2.261894202711332,2.2620560601183635,2.261732345304475,2.261894202711332
44.46428976666667,55,1.765602643956388,1.0,0.0,2.261732345304475,2.26221791752557,2.261894202711332,2.261894202711332,2.261894202711332,2.261894202711332,2.261894202711332,2.261732345304475
44.4650056,55,2.055603559483732,1.0,0.0,2.26221791752557,2.2623797749329517,2.26221791752557,2.2620560601183635,2.26221791752557,2.2620560601183635,2.2620560601183635,2.26221791752557
44.46612145,55,2.055603559483732,1.0,0.0,2.2620560601183635,2.26221791752557,2.2620560601183635,2.26221791752557,2.2620560601183635,2.2620560601183635,2.26221791752557,2.26221791752557
44.467237,55,1.5742421703235756,1.0,0.0,2.2620560601183635,2.26221791752557,2.26221791752557,2.26221791752557,2.2623797749329517,2.26221791752557,2.26221791752557,2.26221791752557
44.46848645,55,1.5742421703235756,1.0,0.0,1.7959074158309218,2.2262855774028885,2.2620560601183635,2.26221791752557,2.2625416323405085,2.2623797749329517,2.2623797749329517,2.2623797749329517
44.4697356,55,1.0691991405384194,1.0,0.0,2.26221791752557,2.26221791752557,2.2623797749329517,2.2623797749329517,2.2623797749329517,2.2623797749329517,2.26221791752557,2.2625416323405085
44.4704713,55,1.0691991405384194,1.0,0.0,2.2625416323405085,2.2625416323405085,2.2623797749329517,2.2625416323405085,2.2625416323405085,2.2623797749329517,2.2623797749329517,2.2625416323405085
44.471207,55,1.0691991405384194,1.0,0.0,1.0839000213897272,0.1637478992392532,-0.16303914042572668,0.7927205484491332,1.6644796265331645,2.238586737921526,2.260599343461379,2.261732345304475
44.4719424,55,0.9245324687854897,1.0,0.0,5.310358215633014,5.310358215633014,3.321255123735925,1.8585460636583102,1.8493202148931573,0.3772359264027324,1.1044557830465316,1.315031050762421
44.4732898,55,0.9245324687854897,1.0,0.0,5.310358215633014,5.310358215633014,5.310358215633014,5.310358215633014,5.310358215633014,5.310358215633014,5.310358215633014,5.310358215633014
44.4746369,55,1.1210065441028725,1.0,0.0,5.310358215633014,5.310358215633014,5.310358215633014,5.310358215633014,5.310358215633014,5.310358215633014,5.310358215633014,5.310358215633014
44.476215100000005,55,1.1210065441028725,1.0,0.0,5.310358215633014,5.310358215633014,5.310358215633014,5.310358215633014,5.310358215633014,5.310358215633014,5.310358215633014,5.310358215633014
44.477793,55,1.4590783672229897,1.0,0.0,2.6260738294330563,5.310358215633014,5.310358215633014,5.310358215633014,5.310358215633014,5.310358215633014,5.310358215633014,5.310358215633014
44.478385625,55,1.4590783672229897,1.0,0.0,1.088917569352218,1.4728412406904754,1.220830561346791,0.8759146517923371,0.637014915213561,1.949186007782113,4.514970531552371,5.310358215633014
44.47897825,55,1.4590783672229897,1.0,0.0,2.2612467730849555,2.2612467730849555,2.2612467730849555,2.2612467730849555,2.2612467730849555,2.261408630491287,2.2612467730849555,2.2612467730849555
44.479570875,55,1.4590783672229897,1.0,0.0,2.261408630491287,2.261732345304475,2.2615704878977936,2.2615704878977936,2.261732345304475,2.261732345304475,2.261732345304475,2.2615704878977936
44.4801631,55,1.7535253124134194,1.0,0.0,2.261732345304475,2.261732345304475,2.261732345304475,2.261894202711332,2.261894202711332,2.261894202711332,2.261894202711332,2.261732345304475
44.48129175,55,1.7535253124134194,1.0,0.0,2.261732345304475,2.2620560601183635,2.2620560601183635,2.2620560601183635,2.261894202711332,2.261894202711332,2.261894202711332,2.261894202711332
44.4824201,55,1.8142037944690834,1.0,0.0,2.2615704878977936,2.26221791752557,2.261894202711332,2.26221791752557,2.2620560601183635,2.2620560601183635,2.2620560601183635,2.2620560601183635
44.48353055,55,1.8142037944690834,1.0,0.0,2.261894202711332,2.26221791752557,2.26221791752557,2.26221791752557,2.26221791752557,2.26221791752557,2.2620560601183635,2.26221791752557
44.4846404,55,1.785683210362638,1.0,0.0,2.261894202711332,2.2623797749329517,2.26221791752557,2.26221791752557,2.26221791752557,2.2620560601183635,2.2623797749329517,2.26221791752557
44.48543973333334,55,1.785683210362638,1.0,0.0,2.2620560601183635,2.2625416323405085,2.2625416323405085,2.2625416323405085,2.2623797749329517,2.2625416323405085,2.2623797749329517,2.2623797749329517
44.48623906666667,55,1.785683210362638,1.0,0.0,2.26221791752557,2.2625416323405085,2.2625416323405085,2.2623797749329517,2.2623797749329517,2.2625416323405085,2.2623797749329517,2.2623797749329517
44.4870381,55,1.2537141399280678,1.0,0.0,2.26221791752557,2.2623797749329517,2.2625416323405085,2.26221791752557,2.2623797749329517,2.2625416323405085,2.26221791752557,2.2623797749329517
44.488249499999995,55,1.2537141399280678,1.0,0.0,5.310358215633014,-0.28896298191549574,0.4109019782898898,3.119093719587661,3.375154102636193,3.2827327465419285,4.651095542617141,4.19351564990952
44.4894605,55,1.0151086406604897,1.0,0.0,5.310358215633014,5.310358215633014,5.310358215633014,5.310358215633014,5.310358215633014,5.310358215633014,3.642383374394797,2.902527288560492
44.49096735,55,1.0151086406604897,1.0,0.0,5.310358215633014,5.310358215633014,5.310358215633014,5.310358215633014,5.310358215633014,5.310358215633014,5.310358215633014,5.310358215633014
44.4924738,55,1.2571359233753334,1.0,0.0,5.310358215633014,5.310358215633014,5.310358215633014,5.310358215633014,5.310358215633014,5.310358215633014,5.310358215633014,5.310358215633014
44.49324643333333,55,1.2571359233753334,1.0,0.0,5.310358215633014,5.310358215633014,5.310358215633014,5.310358215633014,5.310358215633014,5.310358215633014,5.310358215633014,5.310358215633014
44.49401906666667,55,1.2571359233753334,1.0,0.0,1.0816340320207167,1.075645345931,0.8034030584315787,3.6160003208527374,5.310358215633014,5.310358215633014,5.310358215633014,5.310358215633014
44.4947914,55,1.6678071575061928,1.0,0.0,2.260437486055922,5.310358215633014,5.310358215633014,5.310358215633014,5.310358215633014,5.310358215633014,5.310358215633014,5.310358215633014
44.49559566666667,55,1.6678071575061928,1.0,0.0,2.261408630491287,2.2612467730849555,2.2615704878977936,2.2615704878977936,2.261408630491287,2.2615704878977936,2.261408630491287,2.2612467730849555
44.49639993333333,55,1.6678071575061928,1.0,0.0,2.261408630491287,2.261732345304475,2.261732345304475,2.261894202711332,2.261894202711332,2.2615704878977936,2.261732345304475,2.261732345304475
44.4972037,55,2.2505231456653725,1.0,0.0,2.261894202711332,2.261732345304475,2.261894202711332,2.2620560601183635,2.261732345304475,2.261894202711332,2.261894202711332,2.261894202711332
44.498394250000004,55,2.2505231456653725,1.0,0.0,2.2620560601183635,2.2620560601183635,2.2620560601183635,2.261894202711332,2.261894202711332,2.2620560601183635,2.2620560601183635,2.2620560601183635
44.4995845,55,2.1667333202259194,1.0,0.0,2.261894202711332,2.2620560601183635,2.2620560601183635,2.26221791752557,2.26221791752557,2.261894202711332,2.26221791752557,2.26221791752557
44.5007971,55,2.1667333202259194,1.0,0.0,2.261894202711332,2.26221791752557,2.261894202711332,2.26221791752557,2.26221791752557,2.26221791752557,2.2623797749329517,2.2623797749329517
44.5020094,55,1.414213712681974,1.0,0.0,2.26221791752557,2.2623797749329517,2.26221791752557,2.26221791752557,2.2620560601183635,2.26221791752557,2.26221791752557,2.26221791752557
44.5027149,55,1.414213712681974,1.0,0.0,2.2620560601183635,2.2623797749329517,2.2623797749329517,2.2625416323405085,2.26221791752557,2.26221791752557,2.2623797749329517,2.2623797749329517
44.503420399999996,55,1.414213712681974,1.0,0.0,2.26221791752557,2.2625416323405085,2.2625416323405085,2.2623797749329517,2.2623797749329517,2.2623797749329517,2.2623797749329517,2.26221791752557
44.5041256,55,1.3349481181995522,1.0,0.0,1.0693329472360322,0.5627229608252927,1.5697934072719983,2.1570106393324924,2.260275628650641,2.261732345304475,2.2623797749329517,2.2623797749329517
44.505333300000004,55,1.3349481181995522,1.0,0.0,5.310358215633014,5.310358215633014,5.310358215633014,5.310358215633014,5.001201691586442,4.028580283066288,5.310358215633014,4.798874790462786
44.5065406,55,1.476368482579435,1.0,0.0,5.310358215633014,5.310358215633014,5.310358215633014,5.310358215633014,5.310358215633014,5.310358215633014,5.310358215633014,5.310358215633014
44.50780825,55,1.476368482579435,1.0,0.0,5.310358215633014,5.310358215633014,5.310358215633014,5.310358215633014,5.310358215633014,5.310358215633014,5.310358215633014,5.310358215633014
44.5090754,55,1.6492791728870522,1.0,0.0,5.310358215633014,5.310358215633014,5.310358215633014,5.310358215633014,5.310358215633014,5.310358215633014,5.310358215633014,5.310358215633014
44.50986986666667,55,1.6492791728870522,1.0,0.0,5.310358215633014,5.310358215633014,5.310358215633014,5.310358215633014,5.310358215633014,5.310358215633014,5.310358215633014,5.310358215633014
44.51066433333333,55,1.6492791728870522,1.0,0.0,1.045863773998983,1.2596761192063408,1.0110646590683723,1.3652065855886115,5.027261434181401,5.310358215633014,5.310358215633014,5.310358215633014
44.5114584,55,1.3164983348743569,1.0,0.0,2.2612467730849555,2.2612467730849555,2.263998349016401,2.102141025799185,2.552752254796257,2.4757079936610524,2.664919713066383,3.9803460503353425
44.51258785,55,1.3164983348743569,1.0,0.0,2.2615704878977936,2.261732345304475,2.2615704878977936,2.261732345304475,2.2615704878977936,2.261408630491287,2.261408630491287,2.2615704878977936
44.513717,55,0.9917607860462319,1.0,0.0,2.261732345304475,2.261894202711332,2.261894202711332,2.261894202711332,2.261894202711332,2.261894202711332,2.261894202711332,2.261894202711332
44.514496,55,0.9917607860462319,1.0,0.0,2.261894202711332,2.2620560601183635,2.2620560601183635,2.2620560601183635,2.261894202711332,2.261894202711332,2.2620560601183635,2.2620560601183635
44.515274999999995,55,0.9917607860462319,1.0,0.0,2.2620560601183635,2.26221791752557,2.26221791752557,2.2620560601183635,2.2620560601183635,2.261894202711332,2.2620560601183635,2.26221791752557
44.5160537,55,1.3518624858753334,1.0,0.0,2.2620560601183635,2.2620560601183635,2.2620560601183635,2.26221791752557,2.26221791752557,2.2620560601183635,2.2620560601183635,2.26221791752557
44.5172984,55,1.3518624858753334,1.0,0.0,2.26221791752557,2.2623797749329517,2.26221791752557,2.2620560601183635,2.26221791752557,2.261894202711332,2.26221791752557,2.26221791752557
44.5185428,55,1.946754987706388,1.0,0.0,2.274680938406932,2.2623797749329517,2.2625416323405085,2.2625416323405085,2.2623797749329517,2.26221791752557,2.26221791752557,2.2625416323405085
44.519644400000004,55,1.946754987706388,1.0,0.0,2.2625416323405085,2.2623797749329517,2.26221791752557,2.2623797749329517,2.2625416323405085,2.26221791752557,2.2623797749329517,2.2623797749329517
44.5207457,55,1.9281468944446694,1.0,0.0,2.2623797749329517,2.2625416323405085,2.2625416323405085,2.2625416323405085,2.2625416323405085,2.2623797749329517,2.2623797749329517,2.2623797749329517
44.521544666666664,55,1.9281468944446694,1.0,0.0,1.0167296309434584,0.16941285699589764,-0.16708553664624246,0.74319255263946,1.635021686605689,2.227256721617984,2.260599343461379,2.261894202711332
44.522343633333335,55,1.9281468944446694,1.0,0.0,5.310358215633014,5.310358215633014,2.9232451365894083,3.118122568789452,0.47030314422261876,-0.08049265282974923,2.1349980487016165,0.5816601241235413
44.5231422,55,1.898447568883146,1.0,0.0,5.310358215633014,5.310358215633014,5.310358215633014,5.310358215633014,5.310358215633014,5.310358215633014,5.310358215633014,5.310358215633014
44.524242900000004,55,1.898447568883146,1.0,0.0,5.310358215633014,5.310358215633014,5.310358215633014,5.310358215633014,5.310358215633014,5.310358215633014,5.310358215633014,5.310358215633014
44.5253433,55,1.508585508336271,1.0,0.0,5.310358215633014,5.310358215633014,5.310358215633014,5.310358215633014,5.310358215633014,5.310358215633014,5.310358215633014,5.310358215633014
44.526450249999996,55,1.508585508336271,1.0,0.0,0.6056148279184573,4.987767169301817,5.310358215633014,5.310358215633014,5.310358215633014,5.310358215633014,5.310358215633014,5.310358215633014
44.5275569,55,1.3536325054065834,1.0,0.0,1.0209378958458588,1.4615112743618446,1.2206687048695397,0.8768857893292722,0.6408994623027726,1.8462449320804484,4.463984406457698,5.310358215633014
44.52873995,55,1.3536325054065834,1.0,0.0,2.2612467730849555,2.2612467730849555,2.2612467730849555,2.2612467730849555,2.2612467730849555,2.2612467730849555,2.2612467730849555,2.2612467730849555
44.5299226,55,1.4304204540149819,1.0,0.0,2.261732345304475,2.261732345304475,2.261732345304475,2.2615704878977936,2.261732345304475,2.2615704878977936,2.261732345304475,2.2615704878977936
44.53063886666666,55,1.4304204540149819,1.0,0.0,2.261732345304475,2.261894202711332,2.261894202711332,2.261894202711332,2.261894202711332,2.2620560601183635,2.261732345304475,2.2620560601183635
44.531355133333335,55,1.4304204540149819,1.0,0.0,2.261894202711332,2.261894202711332,2.2620560601183635,2.26221791752557,2.2620560601183635,2.2620560601183635,2.261894202711332,2.2620560601183635
44.532071,55,1.538857038487638,1.0,0.0,2.2627034897482408,2.2625416323405085,2.2620560601183635,2.2620560601183635,2.2620560601183635,2.26221791752557,2.26221791752557,2.261894202711332
44.53317655,55,1.538857038487638,1.0,0.0,2.2620560601183635,2.2620560601183635,2.2620560601183635,2.2623797749329517,2.2620560601183635,2.2620560601183635,2.2620560601183635,2.26221791752557
44.5342817,55,1.7264218883411537,1.0,0.0,2.26221791752557,2.2627034897482408,2.2623797749329517,2.26221791752557,2.26221791752557,2.26221791752557,2.2620560601183635,2.2623797749329517
44.5354069,55,1.7264218883411537,1.0,0.0,2.2623797749329517,2.2625416323405085,2.2623797749329517,2.2623797749329517,2.2623797749329517,2.2625416323405085,2.2623797749329517,2.2623797749329517
44.5365318,55,1.825691755284513,1.0,0.0,2.2623797749329517,2.2625416323405085,2.2623797749329517,2.2623797749329517,2.2623797749329517,2.2625416323405085,2.26221791752557,2.2623797749329517
44.5376026,55,1.825691755284513,1.0,0.0,2.26221791752557,2.2625416323405085,2.2623797749329517,2.2623797749329517,2.2623797749329517,2.2625416323405085,2.2625416323405085,2.2625416323405085
44.5386731,55,1.5443845348255287,1.0,0.0,5.310358215633014,0.11616225656134462,0.9343447663495246,1.7781031530687568,4.328992715424329,3.0350892053134655,3.446210154636285,4.942931491112406
44.53952723333333,55,1.5443845348255287,1.0,0.0,5.310358215633014,5.310358215633014,5.310358215633014,5.310358215633014,5.310358215633014,5.310358215633014,3.4976813105209836,2.706031619045308
44.540381366666665,55,1.5443845348255287,1.0,0.0,5.310358215633014,5.310358215633014,5.310358215633014,5.310358215633014,5.310358215633014,5.310358215633014,5.310358215633014,5.310358215633014
44.5412351,55,1.075630720128263,1.0,0.0,5.310358215633014,5.310358215633014,5.310358215633014,5.310358215633014,5.310358215633014,5.310358215633014,5.310358215633014,5.310358215633014
44.5424673,55,1.075630720128263,1.0,0.0,5.310358215633014,5.310358215633014,5.310358215633014,5.310358215633014,5.310358215633014,5.310358215633014,5.310358215633014,5.310358215633014
44.5436993,55,1.087412412633146,1.0,0.0,1.0112265154059292,1.0291925695092854,0.7936916857042172,4.161143621347054,5.310358215633014,5.310358215633014,5.310358215633014,5.310358215633014
44.54488765,55,1.087412412633146,1.0,0.0,2.2612467730849555,5.310358215633014,5.310358215633014,5.310358215633014,5.310358215633014,5.310358215633014,5.310358215633014,5.310358215633014
44.5460757,55,1.666115339268888,1.0,0.0,2.2612467730849555,2.261408630491287,2.261408630491287,2.261408630491287,2.261408630491287,2.2612467730849555,2.2612467730849555,2.2612467730849555
44.54678333333334,55,1.666115339268888,1.0,0.0,2.261732345304475,2.261894202711332,2.261732345304475,2.2615704878977936,2.261732345304475,2.261732345304475,2.261732345304475,2.261732345304475
44.547490966666665,55,1.666115339268888,1.0,0.0,2.261894202711332,2.261894202711332,2.261732345304475,2.261894202711332,2.261894202711332,2.261894202711332,2.261894202711332,2.2620560601183635
44.5481983,55,1.9306455211536537,1.0,0.0,2.2620560601183635,2.261894202711332,2.261894202711332,2.2620560601183635,2.2620560601183635,2.2620560601183635,2.2620560601183635,2.261894202711332
44.549276750000004,55,1.9306455211536537,1.0,0.0,2.261894202711332,2.2620560601183635,2.2620560601183635,2.2620560601183635,2.2620560601183635,2.2620560601183635,2.26221791752557,2.2620560601183635
44.5503549,55,2.115711744298185,1.0,0.0,2.26221791752557,2.26221791752557,2.2623797749329517,2.2620560601183635,2.26221791752557,2.26221791752557,2.26221791752557,2.2623797749329517
44.5515452,55,2.115711744298185,1.0,0.0,2.262865347156148,2.2623797749329517,2.26221791752557,2.26221791752557,2.26221791752557,2.26221791752557,2.26221791752557,2.2623797749329517
44.5527352,55,1.627268369664396,1.0,0.0,2.26221791752557,2.2623797749329517,2.2623797749329517,2.2623797749329517,2.2625416323405085,2.2623797749329517,2.26221791752557,2.26221791752557
44.553590066666665,55,1.627268369664396,1.0,0.0,2.2625416323405085,2.2623797749329517,2.2623797749329517,2.2625416323405085,2.2625416323405085,2.2623797749329517,2.2623797749329517,2.26221791752557
44.554444933333336,55,1.627268369664396,1.0,0.0,0.9961738764470764,0.4690082958200557,1.5165425453272356,2.125448469908197,2.2601137712455337,2.261894202711332,2.26221791752557,2.2625416323405085
44.5552994,55,1.0301747875110756,1.0,0.0,5.310358215633014,5.310358215633014,5.175203245279778,4.976760574450548,4.6062600509018345,3.9204579430777104,5.310358215633014,4.4915007241700735
44.55689955,55,1.0301747875110756,1.0,0.0,5.310358215633014,5.310358215633014,5.310358215633014,5.310358215633014,5.310358215633014,5.310358215633014,5.310358215633014,5.310358215633014
44.5584993,55,1.04744392203256,1.0,0.0,5.310358215633014,5.310358215633014,5.310358215633014,5.310358215633014,5.310358215633014,5.310358215633014,5.310358215633014,5.310358215633014
44.559281166666665,55,1.04744392203256,1.0,0.0,5.310358215633014,5.310358215633014,5.310358215633014,5.310358215633014,5.310358215633014,5.310358215633014,5.310358215633014,5.310358215633014
44.560063033333336,55,1.04744392203256,1.0,0.0,5.310358215633014,5.310358215633014,5.310358215633014,5.310358215633014,5.310358215633014,5.310358215633014,5.310358215633014,5.310358215633014
44.5608446,55,1.192759092320646,1.0,0.0,1.006856394327569,1.1421683266591252,0.9082859048558907,1.953232434992677,5.310358215633014,5.310358215633014,5.310358215633014,5.310358215633014
44.56160713333333,55,1.192759092320646,1.0,0.0,2.260923058272817,2.2615704878977936,2.26335091938092,2.253315760388907,2.2076719811478513,2.171739653924085,2.477974000729856,2.816904343977814
44.56236966666667,55,1.192759092320646,1.0,0.0,2.2615704878977936,2.2615704878977936,2.2615704878977936,2.261408630491287,2.261732345304475,2.261732345304475,2.2615704878977936,2.261732345304475
44.5631319,55,1.196693952550138,1.0,0.0,2.2620560601183635,2.261894202711332,2.261894202711332,2.261894202711332,2.261894202711332,2.261894202711332,2.261894202711332,2.261732345304475
44.564196,55,1.196693952550138,1.0,0.0,2.2620560601183635,2.261894202711332,2.2620560601183635,2.2620560601183635,2.261894202711332,2.2620560601183635,2.261894202711332,2.261894202711332
44.5652598,55,1.4232411937610756,1.0,0.0,2.2623797749329517,2.26221791752557,2.2620560601183635,2.2620560601183635,2.261894202711332,2.2620560601183635,2.26221791752557,2.261894202711332
44.56631275,55,1.4232411937610756,1.0,0.0,2.2623797749329517,2.26221791752557,2.2620560601183635,2.26221791752557,2.26221791752557,2.2620560601183635,2.2620560601183635,2.26221791752557
44.5673654,55,1.6572843150989662,1.0,0.0,2.26221791752557,2.2623797749329517,2.26221791752557,2.26221791752557,2.26221791752557,2.2620560601183635,2.26221791752557,2.26221791752557
44.56850955,55,1.6572843150989662,1.0,0.0,1.624824708470255,2.205405978280984,2.2610849156787984,2.2623797749329517,2.2623797749329517,2.26221791752557,2.2623797749329517,2.2623797749329517
44.5696535,55,1.52992683218881,1.0,0.0,2.2625416323405085,2.2625416323405085,2.2623797749329517,2.2623797749329517,2.2623797749329517,2.2623797749329517,2.26221791752557,2.2623797749329517
44.5707523,55,1.52992683218881,1.0,0.0,2.2623797749329517,2.2627034897482408,2.2625416323405085,2.2625416323405085,2.2623797749329517,2.26221791752557,2.2625416323405085,2.2623797749329517
44.5718508,55,1.3572908000843178,1.0,0.0,1.0062089689889229,0.13186228104398537,-0.17857730180169287,0.7736215164137952,1.6542826468055158,2.2358351624554036,2.260437486055922,2.261894202711332
44.5726904,55,1.3572908000843178,1.0,0.0,5.310358215633014,5.310358215633014,5.310358215633014,1.359056035530999,0.16196748395749688,1.8600027766661507,0.5928281952768734,0.062102381937873305
44.57353,55,1.3572908000843178,1.0,0.0,5.310358215633014,5.310358215633014,5.310358215633014,5.310358215633014,5.310358215633014,5.310358215633014,5.310358215633014,5.310358215633014
44.5743693,55,0.9717584209339272,1.0,0.0,5.310358215633014,5.310358215633014,5.310358215633014,5.310358215633014,5.310358215633014,5.310358215633014,5.310358215633014,5.310358215633014
44.57555735,55,0.9717584209339272,1.0,0.0,5.310358215633014,5.310358215633014,5.310358215633014,5.310358215633014,5.310358215633014,5.310358215633014,5.310358215633014,5.310358215633014
44.5767451,55,1.0026975231067787,1.0,0.0,1.4569792880063668,5.0638422056202295,5.310358215633014,5.310358215633014,5.310358215633014,5.310358215633014,5.310358215633014,5.310358215633014
44.57760436666666,55,1.0026975231067787,1.0,0.0,1.0092842393619574,1.416029558671294,1.175834465027159,0.8445145399063141,0.6172684682179828,1.9750831436285694,4.535526850907999,5.310358215633014
44.578463633333335,55,1.0026975231067787,1.0,0.0,2.261408630491287,2.2612467730849555,2.2612467730849555,2.2610849156787984,2.2612467730849555,2.2612467730849555,2.2612467730849555,2.261408630491287
44.5793226,55,1.2074914531604897,1.0,0.0,2.2615704878977936,2.261732345304475,2.261732345304475,2.2615704878977936,2.2615704878977936,2.2615704878977936,2.261732345304475,2.2615704878977936
44.5802974,55,1.2074914531604897,1.0,0.0,2.261894202711332,2.261732345304475,2.2615704878977936,2.261732345304475,2.2620560601183635,2.261894202711332,2.261732345304475,2.261894202711332
44.5812719,55,1.1288152294056069,1.0,0.0,2.261732345304475,2.2620560601183635,2.261894202711332,2.261894202711332,2.261894202711332,2.261894202711332,2.261894202711332,2.261732345304475
44.5824211,55,1.1288152294056069,1.0,0.0,2.259304484222624,2.261894202711332,2.26221791752557,2.2620560601183635,2.2620560601183635,2.2620560601183635,2.2620560601183635,2.2620560601183635
44.58357,55,1.7598386363880287,1.0,0.0,2.2620560601183635,2.2623797749329517,2.26221791752557,2.26221791752557,2.2620560601183635,2.26221791752557,2.2620560601183635,2.2620560601183635
44.584688150000005,55,1.7598386363880287,1.0,0.0,2.2623797749329517,2.2620560601183635,2.26221791752557,2.26221791752557,2.26221791752557,2.2623797749329517,2.2623797749329517,2.26221791752557
44.585806,55,2.5669198589222084,1.0,0.0,2.2625416323405085,2.2625416323405085,2.26221791752557,2.2625416323405085,2.26221791752557,2.2623797749329517,2.2625416323405085,2.2623797749329517
44.58652096666667,55,2.5669198589222084,1.0,0.0,2.2625416323405085,2.2623797749329517,2.2623797749329517,2.2623797749329517,2.2623797749329517,2.26221791752557,2.26221791752557,2.2623797749329517
44.58723593333333,55,2.5669198589222084,1.0,0.0,2.26221791752557,2.26221791752557,2.2625416323405085,2.2625416323405085,2.2625416323405085,2.2623797749329517,2.2623797749329517,2.2625416323405085
44.5879506,55,2.097281034459318,1.0,0.0,5.310358215633014,-0.3053104202641988,1.1575446873405912,2.742611514794514,2.832604577062581,4.563852495966786,3.707774530369648,3.714896341985595
44.589388650000004,55,2.097281034459318,1.0,0.0,5.310358215633014,5.310358215633014,5.310358215633014,5.310358215633014,5.310358215633014,5.310358215633014,5.310358215633014,2.2162504208777913
44.5908264,55,1.4911981181995522,1.0,0.0,5.310358215633014,5.310358215633014,5.310358215633014,5.310358215633014,5.310358215633014,5.310358215633014,5.310358215633014,5.310358215633014
44.5920869,55,1.4911981181995522,1.0,0.0,5.310358215633014,5.310358215633014,5.310358215633014,5.310358215633014,5.310358215633014,5.310358215633014,5.310358215633014,5.310358215633014
44.5933471,55,1.7670960979358803,1.0,0.0,5.310358215633014,5.310358215633014,5.310358215633014,5.310358215633014,5.310358215633014,5.310358215633014,5.310358215633014,5.310358215633014
44.59413163333333,55,1.7670960979358803,1.0,0.0,1.0086368140172197,1.1002475167404557,0.8827126146219112,4.3349815510260346,5.310358215633014,5.310358215633014,5.310358215633014,5.310358215633014
44.59491616666667,55,1.7670960979358803,1.0,0.0,2.260437486055922,5.310358215633014,5.310358215633014,5.310358215633014,5.310358215633014,5.310358215633014,5.310358215633014,5.310358215633014
44.5957003,55,1.512440259923185,1.0,0.0,2.2615704878977936,2.261408630491287,2.2612467730849555,2.2612467730849555,2.261408630491287,2.2612467730849555,2.2612467730849555,2.261408630491287
44.59654866666666,55,1.512440259923185,1.0,0.0,2.261894202711332,2.261894202711332,2.2615704878977936,2.261732345304475,2.2615704878977936,2.261732345304475,2.261732345304475,2.261732345304475
44.59739703333334,55,1.512440259923185,1.0,0.0,2.2620560601183635,2.261894202711332,2.2620560601183635,2.261894202711332,2.261894202711332,2.261894202711332,2.261732345304475,2.261894202711332
44.5982451,55,1.1414819316761147,1.0,0.0,2.261732345304475,2.2620560601183635,2.2620560601183635,2.261894202711332,2.2620560601183635,2.261894202711332,2.2620560601183635,2.261732345304475
44.599327849999995,55,1.1414819316761147,1.0,0.0,2.2620560601183635,2.2620560601183635,2.2620560601183635,2.26221791752557,2.2620560601183635,2.2620560601183635,2.2620560601183635,2.2620560601183635
44.6004103,55,1.401133115758146,1.0,0.0,2.261894202711332,2.2623797749329517,2.2620560601183635,2.2620560601183635,2.2620560601183635,2.2620560601183635,2.2620560601183635,2.2623797749329517
44.601565550000004,55,1.401133115758146,1.0,0.0,2.2599519138406023,2.2623797749329517,2.2623797749329517,2.2623797749329517,2.2623797749329517,2.2620560601183635,2.26221791752557,2.2623797749329517
44.6027205,55,1.1222253398792397,1.0,0.0,2.2623797749329517,2.2623797749329517,2.26221791752557,2.26221791752557,2.2623797749329517,2.26221791752557,2.2623797749329517,2.2623797749329517
44.60342816666667,55,1.1222253398792397,1.0,0.0,2.2623797749329517,2.2623797749329517,2.2623797749329517,2.2623797749329517,2.2623797749329517,2.2623797749329517,2.2623797749329517,2.2623797749329517
44.60413583333333,55,1.1222253398792397,1.0,0.0,1.0032955549850915,0.5306754560498583,1.54438189992895,2.143900198949706,2.2601137712455337,2.261894202711332,2.2623797749329517,2.2623797749329517
44.6048432,55,1.2074723796741615,1.0,0.0,5.310358215633014,5.310358215633014,5.310358215633014,5.062385448904906,4.1020646986957665,5.155617934378598,4.265219734342164,4.914281991694633
44.60642375,55,1.2074723796741615,1.0,0.0,5.310358215633014,5.310358215633014,5.310358215633014,5.310358215633014,5.310358215633014,5.310358215633014,5.310358215633014,5.310358215633014
44.6080039,55,1.6207395152942787,1.0,0.0,5.310358215633014,5.310358215633014,5.310358215633014,5.310358215633014,5.310358215633014,5.310358215633014,5.310358215633014,5.310358215633014
44.608888633333336,55,1.6207395152942787,1.0,0.0,5.310358215633014,5.310358215633014,5.310358215633014,5.310358215633014,5.310358215633014,5.310358215633014,5.310358215633014,5.310358215633014
44.609773366666666,55,1.6207395152942787,1.0,0.0,5.310358215633014,5.310358215633014,5.310358215633014,5.310358215633014,5.310358215633014,5.310358215633014,5.310358215633014,5.310358215633014
44.6106577,55,1.697172697056974,1.0,0.0,1.0024862733231859,1.1365033519205534,0.9280323710995306,1.9064557423881,5.176174417852778,5.310358215633014,5.310358215633014,5.310358215633014
44.6114575,55,1.697172697056974,1.0,0.0,2.260923058272817,2.261894202711332,2.26221791752557,2.247165179402998,2.173681941667295,2.1207546093586034,2.3546385259241798,3.431642850868717
44.612257299999996,55,1.697172697056974,1.0,0.0,2.2615704878977936,2.261732345304475,2.261732345304475,2.2615704878977936,2.261732345304475,2.2615704878977936,2.2615704878977936,2.2615704878977936
44.6130567,55,1.3173242168323647,1.0,0.0,2.261732345304475,2.261894202711332,2.2620560601183635,2.261732345304475,2.261894202711332,2.261894202711332,2.261732345304475,2.261894202711332
44.61414345,55,1.3173242168323647,1.0,0.0,2.261894202711332,2.261732345304475,2.261894202711332,2.261732345304475,2.261894202711332,2.261894202711332,2.261894202711332,2.261894202711332
44.6152298,55,1.8929391460315834,1.0,0.0,2.2620560601183635,2.2620560601183635,2.2620560601183635,2.2620560601183635,2.2620560601183635,2.2620560601183635,2.2620560601183635,2.261894202711332
44.61659285,55,1.8929391460315834,1.0,0.0,2.2620560601183635,2.2620560601183635,2.261894202711332,2.2620560601183635,2.26221791752557,2.26221791752557,2.2620560601183635,2.261894202711332
44.6179556,55,1.7685723857776772,1.0,0.0,2.261894202711332,2.26221791752557,2.2620560601183635,2.26221791752557,2.2620560601183635,2.2620560601183635,2.2620560601183635,2.26221791752557
44.618731733333334,55,1.7685723857776772,1.0,0.0,2.2212679990573747,2.2625416323405085,2.2625416323405085,2.2625416323405085,2.26221791752557,2.2623797749329517,2.2623797749329517,2.2623797749329517
44.619507866666666,55,1.7685723857776772,1.0,0.0,2.2625416323405085,2.2623797749329517,2.2625416323405085,2.2623797749329517,2.2623797749329517,2.26221791752557,2.26221791752557,2.2623797749329517
44.6202837,55,1.0615869121448647,1.0,0.0,2.2623797749329517,2.2625416323405085,2.2625416323405085,2.2625416323405085,2.2623797749329517,2.2623797749329517,2.26221791752557,2.2623797749329517
44.62154995,55,1.0615869121448647,1.0,0.0,1.0099316647083214,0.0904271658822691,-0.20058969658166784,0.7187522701104848,1.6215875726686497,2.219649425432941,2.260437486055922,2.261732345304475
44.6228159,55,0.8420796947376381,1.0,0.0,5.310358215633014,5.310358215633014,3.40704029787156,2.3806975871872234,0.19741393485770609,0.7234460990548093,1.6780756003682946,0.3160543584303188
44.62397575,55,0.8420796947376381,1.0,0.0,5.310358215633014,5.310358215633014,5.310358215633014,5.310358215633014,5.310358215633014,5.310358215633014,5.310358215633014,5.310358215633014
44.6251352,55,1.1924062328235756,1.0,0.0,5.310358215633014,5.310358215633014,5.310358215633014,5.310358215633014,5.310358215633014,5.310358215633014,5.310358215633014,5.310358215633014
44.62587943333334,55,1.1924062328235756,1.0,0.0,5.310358215633014,5.310358215633014,5.310358215633014,5.310358215633014,5.310358215633014,5.310358215633014,5.310358215633014,5.310358215633014
44.62662366666667,55,1.1924062328235756,1.0,0.0,-1.9644948849094124,3.040430531029526,5.310358215633014,5.310358215633014,5.310358215633014,5.310358215633014,5.310358215633014,5.310358215633014
44.6273676,55,1.655159528722013,1.0,0.0,1.0099316647083214,1.4032428859464694,1.1978469427140799,0.8759146517923371,0.6541716652061642,1.2800700397558689,4.117926981056965,5.310358215633014
44.6285415,55,1.655159528722013,1.0,0.0,2.260923058272817,2.2612467730849555,2.2612467730849555,2.2612467730849555,2.2612467730849555,2.2610849156787984,2.2612467730849555,2.2612467730849555
44.6297151,55,1.5662160472767006,1.0,0.0,2.2615704878977936,2.261732345304475,2.2615704878977936,2.2615704878977936,2.2615704878977936,2.2615704878977936,2.2615704878977936,2.2615704878977936
44.63044613333333,55,1.5662160472767006,1.0,0.0,2.261732345304475,2.261732345304475,2.261894202711332,2.261732345304475,2.261894202711332,2.261732345304475,2.261732345304475,2.261894202711332
44.63117716666667,55,1.5662160472767006,1.0,0.0,2.261894202711332,2.261894202711332,2.261894202711332,2.2620560601183635,2.261894202711332,2.261732345304475,2.261894202711332,2.2620560601183635
44.6319079,55,1.5069528179065834,1.0,0.0,2.2620560601183635,2.2623797749329517,2.26221791752557,2.2620560601183635,2.2620560601183635,2.26221791752557,2.2620560601183635,2.2620560601183635
44.63297455,55,1.5069528179065834,1.0,0.0,2.261894202711332,2.26221791752557,2.26221791752557,2.26221791752557,2.26221791752557,2.2620560601183635,2.26221791752557,2.2620560601183635
44.6340409,55,1.822701032628263,1.0,0.0,2.26221791752557,2.26221791752557,2.26221791752557,2.26221791752557,2.26221791752557,2.26221791752557,2.26221791752557,2.26221791752557
44.63512005,55,1.822701032628263,1.0,0.0,2.2620560601183635,2.2623797749329517,2.2623797749329517,2.26221791752557,2.26221791752557,2.26221791752557,2.2623797749329517,2.26221791752557
44.6361989,55,1.880350645055021,1.0,0.0,2.2620560601183635,2.2623797749329517,2.2623797749329517,2.2625416323405085,2.26221791752557,2.2623797749329517,2.2623797749329517,2.2623797749329517
44.6372329,55,1.880350645055021,1.0,0.0,2.2623797749329517,2.2625416323405085,2.2623797749329517,2.2623797749329517,2.26221791752557,2.2623797749329517,2.2623797749329517,2.2623797749329517
44.6382666,55,1.4389176921741615,1.0,0.0,5.310358215633014,0.4858413254043287,1.8907556097063616,4.212777012370916,3.492825540033514,3.4405450918250877,5.094757826847988,3.900387342521797
44.6396151,55,1.4389176921741615,1.0,0.0,5.310358215633014,5.310358215633014,5.310358215633014,5.310358215633014,5.310358215633014,5.310358215633014,5.310358215633014,2.4948071972516592
44.6409633,55,0.9466405467884194,1.0,0.0,5.310358215633014,5.310358215633014,5.310358215633014,5.310358215633014,5.310358215633014,5.310358215633014,5.310358215633014,5.310358215633014
44.64176153333334,55,0.9466405467884194,1.0,0.0,5.310358215633014,5.310358215633014,5.310358215633014,5.310358215633014,5.310358215633014,5.310358215633014,5.310358215633014,5.310358215633014
44.642559766666665,55,0.9466405467884194,1.0,0.0,5.310358215633014,5.310358215633014,5.310358215633014,5.310358215633014,5.310358215633014,5.310358215633014,5.310358215633014,5.310358215633014
44.6433577,55,1.6153112010852944,1.0,0.0,1.0044285493160128,1.1573828309071947,0.9382293173460652,3.904595693905288,5.310358215633014,5.310358215633014,5.310358215633014,5.310358215633014
44.64455675000001,55,1.6153112010852944,1.0,0.0,2.260599343461379,5.310358215633014,5.310358215633014,5.310358215633014,5.310358215633014,5.310358215633014,5.310358215633014,5.310358215633014
44.6457554,55,1.5706811504261147,1.0,0.0,2.2612467730849555,2.261408630491287,2.2615704878977936,2.261408630491287,2.2612467730849555,2.2610849156787984,2.2612467730849555,2.2612467730849555
44.64650546666667,55,1.5706811504261147,1.0,0.0,2.261732345304475,2.261894202711332,2.2615704878977936,2.261732345304475,2.2615704878977936,2.261732345304475,2.261894202711332,2.2615704878977936
44.64725553333333,55,1.5706811504261147,1.0,0.0,2.261894202711332,2.261894202711332,2.261732345304475,2.261894202711332,2.261894202711332,2.261732345304475,2.261732345304475,2.261732345304475
44.6480053,55,1.233591611851896,1.0,0.0,2.261894202711332,2.2620560601183635,2.2620560601183635,2.2620560601183635,2.261894202711332,2.261894202711332,2.2620560601183635,2.261894202711332
44.6491892,55,1.233591611851896,1.0,0.0,2.261894202711332,2.2620560601183635,2.2620560601183635,2.2620560601183635,2.26221791752557,2.2620560601183635,2.261894202711332,2.2620560601183635
44.6503727,55,1.6621022777454506,1.0,0.0,2.2620560601183635,2.26221791752557,2.26221791752557,2.2620560601183635,2.26221791752557,2.2620560601183635,2.2620560601183635,2.2620560601183635
44.6515569,55,1.6621022777454506,1.0,0.0,2.2627034897482408,2.26221791752557,2.26221791752557,2.26221791752557,2.2623797749329517,2.2620560601183635,2.26221791752557,2.26221791752557
44.6527407,55,1.6102948741809975,1.0,0.0,2.26221791752557,2.2623797749329517,2.2623797749329517,2.2623797749329517,2.2623797749329517,2.26221791752557,2.26221791752557,2.2625416323405085
44.65347403333333,55,1.6102948741809975,1.0,0.0,2.2620560601183635,2.2623797749329517,2.2623797749329517,2.26221791752557,2.2625416323405085,2.2623797749329517,2.2625416323405085,2.2623797749329517
44.65420736666667,55,1.6102948741809975,1.0,0.0,1.0036192676505624,0.4198040597955139,1.4953393185598458,2.1152514626859524,2.2599519138406023,2.261732345304475,2.26221791752557,2.2623797749329517
44.6549404,55,0.8768144206897865,1.0,0.0,5.310358215633014,5.310358215633014,5.310358215633014,4.478875589066679,3.5030226583144715,5.102850923462686,3.942470864630827,4.931439317782441
44.656671450000005,55,0.8768144206897865,1.0,0.0,5.310358215633014,5.310358215633014,5.310358215633014,5.310358215633014,5.310358215633014,5.310358215633014,5.310358215633014,5.310358215633014
44.6584021,55,1.6505761699573647,1.0,0.0,5.310358215633014,5.310358215633014,5.310358215633014,5.310358215633014,5.310358215633014,5.310358215633014,5.310358215633014,5.310358215633014
44.65919923333333,55,1.6505761699573647,1.0,0.0,5.310358215633014,5.310358215633014,5.310358215633014,5.310358215633014,5.310358215633014,5.310358215633014,5.310358215633014,5.310358215633014
44.65999636666667,55,1.6505761699573647,1.0,0.0,5.310358215633014,5.310358215633014,5.310358215633014,5.310358215633014,5.310358215633014,5.310358215633014,5.310358215633014,5.310358215633014
44.6607932,55,1.6490827159778725,1.0,0.0,1.0083131013454603,1.1577065437740977,0.9576520731733947,1.186193277798216,4.972714032614466,5.310358215633014,5.310358215633014,5.310358215633014
44.66195555,55,1.6490827159778725,1.0,0.0,2.2610849156787984,2.263998349016401,2.2656169231173666,2.247812608968609,2.2156029914473363,2.391380185091024,2.356418958531935,2.7503806975252805
44.6631176,55,1.5546708660022865,1.0,0.0,2.2615704878977936,2.261732345304475,2.2615704878977936,2.261408630491287,2.261732345304475,2.261732345304475,2.2615704878977936,2.261408630491287
44.663825233333334,55,1.5546708660022865,1.0,0.0,2.261894202711332,2.2620560601183635,2.261732345304475,2.261894202711332,2.261732345304475,2.261732345304475,2.261894202711332,2.261894202711332
44.66453286666667,55,1.5546708660022865,1.0,0.0,2.261732345304475,2.2620560601183635,2.2620560601183635,2.2620560601183635,2.2620560601183635,2.2620560601183635,2.261894202711332,2.261894202711332
44.6652402,55,1.8101335124866615,1.0,0.0,2.261732345304475,2.2620560601183635,2.2620560601183635,2.26221791752557,2.2620560601183635,2.2620560601183635,2.2620560601183635,2.2620560601183635
44.6663086,55,1.8101335124866615,1.0,0.0,2.261894202711332,2.2620560601183635,2.2620560601183635,2.2620560601183635,2.26221791752557,2.26221791752557,2.26221791752557,2.2620560601183635
44.6673766,55,1.6464067058460365,1.0,0.0,2.2623797749329517,2.26221791752557,2.2623797749329517,2.26221791752557,2.26221791752557,2.2620560601183635,2.2623797749329517,2.2620560601183635
44.6685267,55,1.6464067058460365,1.0,0.0,1.3354249764190937,2.2426331725217232,2.2601137712455337,2.261732345304475,2.2620560601183635,2.2625416323405085,2.2623797749329517,2.2623797749329517
44.6696764,55,1.074410017003263,1.0,0.0,2.2623797749329517,2.2625416323405085,2.2623797749329517,2.26221791752557,2.2620560601183635,2.2623797749329517,2.26221791752557,2.2623797749329517
44.6707472,55,1.074410017003263,1.0,0.0,2.2625416323405085,2.2625416323405085,2.2625416323405085,2.2625416323405085,2.2623797749329517,2.2623797749329517,2.2623797749329517,2.2623797749329517
44.6718177,55,0.8641667919056069,1.0,0.0,1.0052378309839967,0.09382614005287745,-0.2023701108402038,0.6881614556193134,1.6018410454671903,2.2075101237991013,2.260437486055922,2.261732345304475
44.672655066666664,55,0.8641667919056069,1.0,0.0,5.310358215633014,5.310358215633014,5.310358215633014,1.2794226136781097,0.9366107544240255,1.446620462427082,-0.028860629207773852,0.32625128580678064
44.67349243333334,55,0.8641667919056069,1.0,0.0,5.310358215633014,5.310358215633014,5.310358215633014,5.310358215633014,5.310358215633014,5.310358215633014,5.310358215633014,5.310358215633014
44.6743295,55,1.2980866985218178,1.0,0.0,5.310358215633014,5.310358215633014,5.310358215633014,5.310358215633014,5.310358215633014,5.310358215633014,5.310358215633014,5.310358215633014
44.675589599999995,55,1.2980866985218178,1.0,0.0,5.310358215633014,5.310358215633014,5.310358215633014,5.310358215633014,5.310358215633014,5.310358215633014,5.310358215633014,5.310358215633014
44.6768494,55,1.410988386143888,1.0,0.0,5.310358215633014,5.310358215633014,5.310358215633014,5.310358215633014,5.310358215633014,5.310358215633014,5.310358215633014,5.310358215633014
44.6776502,55,1.410988386143888,1.0,0.0,1.006532681658043,1.4428977596119754,1.230380093706738,0.8780187831266338,0.6128983530580773,2.2123658443364094,4.673594228062708,5.310358215633014
44.678451,55,1.410988386143888,1.0,0.0,2.260923058272817,2.2612467730849555,2.2612467730849555,2.260923058272817,2.261408630491287,2.2612467730849555,2.2612467730849555,2.2612467730849555
44.6792515,55,1.4697404460804115,1.0,0.0,2.261732345304475,2.261732345304475,2.2615704878977936,2.2615704878977936,2.2615704878977936,2.2615704878977936,2.261732345304475,2.261732345304475
44.680484050000004,55,1.4697404460804115,1.0,0.0,2.261732345304475,2.261894202711332,2.261894202711332,2.261732345304475,2.261894202711332,2.261894202711332,2.261894202711332,2.2620560601183635
44.6817163,55,1.4957223491565834,1.0,0.0,2.261894202711332,2.2620560601183635,2.261894202711332,2.261894202711332,2.26221791752557,2.2620560601183635,2.2620560601183635,2.261894202711332
44.682456,55,1.4957223491565834,1.0,0.0,2.261732345304475,2.2620560601183635,2.2620560601183635,2.2620560601183635,2.26221791752557,2.2620560601183635,2.2620560601183635,2.26221791752557
44.6831957,55,1.4957223491565834,1.0,0.0,2.26221791752557,2.26221791752557,2.26221791752557,2.2620560601183635,2.2620560601183635,2.26221791752557,2.26221791752557,2.26221791752557
44.6839351,55,1.9542680339710365,1.0,0.0,2.26221791752557,2.26221791752557,2.2623797749329517,2.2620560601183635,2.26221791752557,2.2623797749329517,2.2623797749329517,2.26221791752557
44.68507115,55,1.9542680339710365,1.0,0.0,2.26221791752557,2.2623797749329517,2.2623797749329517,2.2623797749329517,2.2625416323405085,2.26221791752557,2.2623797749329517,2.2625416323405085
44.6862069,55,2.1769223766224037,1.0,0.0,2.2623797749329517,2.2623797749329517,2.2623797749329517,2.2623797749329517,2.2623797749329517,2.2623797749329517,2.2623797749329517,2.2623797749329517
44.68726905,55,2.1769223766224037,1.0,0.0,2.26221791752557,2.2623797749329517,2.2623797749329517,2.2625416323405085,2.2623797749329517,2.2623797749329517,2.2625416323405085,2.26221791752557
44.6883309,55,1.610117490758146,1.0,0.0,5.310358215633014,2.4161443923869705,4.070663862026204,3.081704419691967,3.221873891987508,4.759866222667793,3.595120485726749,3.802947872926727
44.689684099999994,55,1.610117490758146,1.0,0.0,5.310358215633014,5.310358215633014,5.310358215633014,5.310358215633014,5.310358215633014,5.310358215633014,5.310358215633014,2.3536673808746094
44.691037,55,1.2074914531604897,1.0,0.0,5.310358215633014,5.310358215633014,5.310358215633014,5.310358215633014,5.310358215633014,5.310358215633014,5.310358215633014,5.310358215633014
44.691852133333335,55,1.2074914531604897,1.0,0.0,5.310358215633014,5.310358215633014,5.310358215633014,5.310358215633014,5.310358215633014,5.310358215633014,5.310358215633014,5.310358215633014
44.69266726666667,55,1.2074914531604897,1.0,0.0,5.310358215633014,5.310358215633014,5.310358215633014,5.310358215633014,5.310358215633014,5.310358215633014,5.310358215633014,5.310358215633014
44.693482,55,1.2603421764270912,1.0,0.0,1.0024862733231859,1.1460528808430113,0.925928239382298,2.9732593310713,5.310358215633014,5.310358215633014,5.310358215633014,5.310358215633014
44.69463125,55,1.2603421764270912,1.0,0.0,2.260437486055922,5.310358215633014,5.310358215633014,5.310358215633014,5.310358215633014,5.310358215633014,5.310358215633014,5.310358215633014
44.6957802,55,1.6542363719837319,1.0,0.0,2.2612467730849555,2.261408630491287,2.2612467730849555,2.261408630491287,2.261408630491287,2.261408630491287,2.261408630491287,2.261408630491287
44.696546233333336,55,1.6542363719837319,1.0,0.0,2.261894202711332,2.261732345304475,2.2615704878977936,2.2615704878977936,2.261732345304475,2.2615704878977936,2.261732345304475,2.261894202711332
44.697312266666664,55,1.6542363719837319,1.0,0.0,2.261894202711332,2.261894202711332,2.261894202711332,2.261732345304475,2.261894202711332,2.261732345304475,2.261894202711332,2.261894202711332
44.6980779,55,1.7835603313343178,1.0,0.0,2.261894202711332,2.261894202711332,2.26221791752557,2.2620560601183635,2.261894202711332,2.2620560601183635,2.26221791752557,2.261894202711332
44.699194750000004,55,1.7835603313343178,1.0,0.0,2.2620560601183635,2.26221791752557,2.2620560601183635,2.2620560601183635,2.261894202711332,2.261894202711332,2.2620560601183635,2.26221791752557
44.7003112,55,2.0170713024036537,1.0,0.0,2.261894202711332,2.26221791752557,2.26221791752557,2.26221791752557,2.26221791752557,2.26221791752557,2.26221791752557,2.2623797749329517
44.7015165,55,2.0170713024036537,1.0,0.0,2.261894202711332,2.2625416323405085,2.2623797749329517,2.26221791752557,2.2620560601183635,2.26221791752557,2.2620560601183635,2.26221791752557
44.7027214,55,1.2060170726673256,1.0,0.0,2.26221791752557,2.2623797749329517,2.26221791752557,2.26221791752557,2.26221791752557,2.26221791752557,2.2623797749329517,2.26221791752557
44.7034693,55,1.2060170726673256,1.0,0.0,2.26221791752557,2.2623797749329517,2.2625416323405085,2.2623797749329517,2.26221791752557,2.2623797749329517,2.2623797749329517,2.2623797749329517
44.7042172,55,1.2060170726673256,1.0,0.0,0.9961738764470764,0.3568420694121335,1.468309254083475,2.0984183093507,2.2601137712455337,2.261732345304475,2.26221791752557,2.2623797749329517
44.7049647,55,1.0842843608753334,1.0,0.0,5.310358215633014,5.310358215633014,5.310358215633014,5.310358215633014,4.311026211050405,4.064836903809935,5.310358215633014,5.110620297016171
44.70653095,55,1.0842843608753334,1.0,0.0,5.310358215633014,5.310358215633014,5.310358215633014,5.310358215633014,5.310358215633014,5.310358215633014,5.310358215633014,5.310358215633014
44.7080969,55,1.0090299205677162,1.0,0.0,5.310358215633014,5.310358215633014,5.310358215633014,5.310358215633014,5.310358215633014,5.310358215633014,5.310358215633014,5.310358215633014
44.7089152,55,1.0090299205677162,1.0,0.0,5.310358215633014,5.310358215633014,5.310358215633014,5.310358215633014,5.310358215633014,5.310358215633014,5.310358215633014,5.310358215633014
44.7097335,55,1.0090299205677162,1.0,0.0,5.310358215633014,5.310358215633014,5.310358215633014,5.310358215633014,5.310358215633014,5.310358215633014,5.310358215633014,5.310358215633014
44.7105514,55,1.414528425206388,1.0,0.0,0.9892140544281185,1.1800427326602374,0.9720572846613803,0.744325545916598,3.954934065104894,5.310358215633014,5.310358215633014,5.310358215633014
44.7118077,55,1.414528425206388,1.0,0.0,2.2610849156787984,2.2612467730849555,2.2641602064257094,2.26302720456423,2.2612467730849555,2.264807636064693,2.252668330799583,2.1186504650198454
44.7130636,55,1.8890252666370522,1.0,0.0,2.2615704878977936,2.2615704878977936,2.261732345304475,2.261408630491287,2.2615704878977936,2.2615704878977936,2.2615704878977936,2.261732345304475
44.7137692,55,1.8890252666370522,1.0,0.0,2.261732345304475,2.261894202711332,2.2620560601183635,2.261894202711332,2.261732345304475,2.261894202711332,2.261732345304475,2.261894202711332
44.7144748,55,1.8890252666370522,1.0,0.0,2.261894202711332,2.2620560601183635,2.2620560601183635,2.261894202711332,2.261894202711332,2.2620560601183635,2.261894202711332,2.2620560601183635
44.71518,55,2.5600953655140053,1.0,0.0,2.26221791752557,2.2620560601183635,2.2620560601183635,2.2620560601183635,2.26221791752557,2.261894202711332,2.2620560601183635,2.261894202711332
44.71660275,55,2.5600953655140053,1.0,0.0,2.2620560601183635,2.2620560601183635,2.2620560601183635,2.2620560601183635,2.26221791752557,2.2620560601183635,2.26221791752557,2.26221791752557
44.7180251,55,1.970377500523771,1.0,0.0,2.26221791752557,2.26221791752557,2.26221791752557,2.26221791752557,2.26221791752557,2.26221791752557,2.26221791752557,2.26221791752557
44.71880623333333,55,1.970377500523771,1.0,0.0,1.8230993842308576,2.249431182894832,2.260437486055922,2.261732345304475,2.2625416323405085,2.26221791752557,2.2623797749329517,2.2623797749329517
44.719587366666666,55,1.970377500523771,1.0,0.0,2.2623797749329517,2.2623797749329517,2.2623797749329517,2.2623797749329517,2.2625416323405085,2.2623797749329517,2.2623797749329517,2.26221791752557
44.7203682,55,1.4256806926624428,1.0,0.0,2.2623797749329517,2.2625416323405085,2.2625416323405085,2.2623797749329517,2.2623797749329517,2.2625416323405085,2.26221791752557,2.2623797749329517
44.7215548,55,1.4256806926624428,1.0,0.0,0.9615366245087043,0.09204572500849821,-0.20528351598255629,0.6540098090699341,1.582903804074091,2.1963419671498543,2.260437486055922,2.261732345304475
44.7227411,55,1.157276685704435,1.0,0.0,5.310358215633014,5.310358215633014,5.310358215633014,0.5703301972389496,-0.6120271733683371,1.2205068483924029,-0.17388348225082997,-0.6267560506395138
44.72349723333333,55,1.157276685704435,1.0,0.0,5.310358215633014,5.310358215633014,5.310358215633014,5.310358215633014,5.310358215633014,5.310358215633014,5.310358215633014,5.310358215633014
44.724253366666666,55,1.157276685704435,1.0,0.0,5.310358215633014,5.310358215633014,5.310358215633014,5.310358215633014,5.310358215633014,5.310358215633014,5.310358215633014,5.310358215633014
44.7250092,55,1.5602574901477944,1.0,0.0,5.310358215633014,5.310358215633014,5.310358215633014,5.310358215633014,5.310358215633014,5.310358215633014,5.310358215633014,5.310358215633014
44.7260751,55,1.5602574901477944,1.0,0.0,5.310358215633014,5.310358215633014,5.310358215633014,5.310358215633014,5.310358215633014,5.310358215633014,5.310358215633014,5.310358215633014
44.7271407,55,1.6040006236927162,1.0,0.0,0.9417901558088692,1.483847494299696,1.270196792273944,0.912656024311063,0.643651016518845,1.7229099497294185,4.413160172111529,5.310358215633014
44.72834055,55,1.6040006236927162,1.0,0.0,2.2610849156787984,2.261408630491287,2.2612467730849555,2.2610849156787984,2.261408630491287,2.2612467730849555,2.2612467730849555,2.2612467730849555
44.72954,55,1.0770078258411537,1.0,0.0,2.2615704878977936,2.261732345304475,2.261732345304475,2.261732345304475,2.2615704878977936,2.2615704878977936,2.2615704878977936,2.2615704878977936
44.7306782,55,1.0770078258411537,1.0,0.0,2.261894202711332,2.2620560601183635,2.2615704878977936,2.2620560601183635,2.261894202711332,2.261894202711332,2.2620560601183635,2.261894202711332
44.7318161,55,1.0513787822620522,1.0,0.0,2.2620560601183635,2.261894202711332,2.2620560601183635,2.2620560601183635,2.2620560601183635,2.2620560601183635,2.261894202711332,2.261894202711332
44.7325401,55,1.0513787822620522,1.0,0.0,2.2612467730849555,2.2620560601183635,2.261894202711332,2.26221791752557,2.2620560601183635,2.2620560601183635,2.2620560601183635,2.261894202711332
44.7332641,55,1.0513787822620522,1.0,0.0,2.2623797749329517,2.26221791752557,2.26221791752557,2.26221791752557,2.26221791752557,2.26221791752557,2.26221791752557,2.26221791752557
44.7339878,55,1.4422612743274819,1.0,0.0,2.2625416323405085,2.26221791752557,2.26221791752557,2.26221791752557,2.26221791752557,2.26221791752557,2.2620560601183635,2.26221791752557
44.7350854,55,1.4422612743274819,1.0,0.0,2.26221791752557,2.2625416323405085,2.2623797749329517,2.2625416323405085,2.26221791752557,2.2623797749329517,2.26221791752557,2.2625416323405085
44.7361826,55,1.7941423015491615,1.0,0.0,2.2623797749329517,2.2623797749329517,2.2623797749329517,2.2623797749329517,2.26221791752557,2.2623797749329517,2.2625416323405085,2.2623797749329517
44.737227950000005,55,1.7941423015491615,1.0,0.0,2.2623797749329517,2.2623797749329517,2.2625416323405085,2.2623797749329517,2.2625416323405085,2.2625416323405085,2.2623797749329517,2.2625416323405085
44.738273,55,1.3300500469104897,1.0,0.0,5.310358215633014,2.947200152741061,4.182347298756459,3.257320933583279,3.499299900732958,4.596548395212528,3.592368879862013,3.881287903928219
44.739624,55,1.3300500469104897,1.0,0.0,5.310358215633014,5.310358215633014,5.310358215633014,5.310358215633014,5.310358215633014,5.310358215633014,4.491662584888594,3.9703107432558644
44.7409748,55,1.039497907628263,1.0,0.0,5.310358215633014,5.310358215633014,5.310358215633014,5.310358215633014,5.310358215633014,5.310358215633014,5.310358215633014,5.310358215633014
44.741952866666665,55,1.039497907628263,1.0,0.0,5.310358215633014,5.310358215633014,5.310358215633014,5.310358215633014,5.310358215633014,5.310358215633014,5.310358215633014,5.310358215633014
44.742930933333334,55,1.039497907628263,1.0,0.0,5.310358215633014,5.310358215633014,5.310358215633014,5.310358215633014,5.310358215633014,5.310358215633014,5.310358215633014,5.310358215633014
44.7439087,55,1.7322240428821694,1.0,0.0,0.9273849459540242,1.1868407036116118,0.9932604625560274,3.272697507613781,5.310358215633014,5.310358215633014,5.310358215633014,5.310358215633014
44.744677833333334,55,1.7322240428821694,1.0,0.0,2.2607612008670106,5.310358215633014,5.310358215633014,5.310358215633014,5.310358215633014,5.310358215633014,5.310358215633014,5.310358215633014
44.74544696666666,55,1.7322240428821694,1.0,0.0,2.2610849156787984,2.261408630491287,2.261408630491287,2.261408630491287,2.2612467730849555,2.2612467730849555,2.261408630491287,2.2612467730849555
44.7462157,55,1.470997388829435,1.0,0.0,2.2615704878977936,2.261732345304475,2.2615704878977936,2.2615704878977936,2.2615704878977936,2.2615704878977936,2.2615704878977936,2.261732345304475
44.7474434,55,1.470997388829435,1.0,0.0,2.261732345304475,2.2620560601183635,2.261894202711332,2.261732345304475,2.261894202711332,2.261732345304475,2.261894202711332,2.261894202711332
44.7486706,55,1.607481534947599,1.0,0.0,2.2620560601183635,2.261894202711332,2.2620560601183635,2.2620560601183635,2.261894202711332,2.2620560601183635,2.261894202711332,2.261894202711332
44.7497993,55,1.607481534947599,1.0,0.0,2.261894202711332,2.26221791752557,2.26221791752557,2.2620560601183635,2.2620560601183635,2.2620560601183635,2.2620560601183635,2.2620560601183635
44.7509276,55,1.747486646641935,1.0,0.0,2.2620560601183635,2.26221791752557,2.26221791752557,2.26221791752557,2.2620560601183635,2.26221791752557,2.2620560601183635,2.2620560601183635
44.751736333333334,55,1.747486646641935,1.0,0.0,2.2623797749329517,2.2623797749329517,2.26221791752557,2.2623797749329517,2.2623797749329517,2.2623797749329517,2.2620560601183635,2.2620560601183635
44.75254506666666,55,1.747486646641935,1.0,0.0,2.2623797749329517,2.2623797749329517,2.2623797749329517,2.26221791752557,2.26221791752557,2.26221791752557,2.26221791752557,2.2623797749329517
44.7533534,55,1.1118608074085365,1.0,0.0,2.2623797749329517,2.2625416323405085,2.2623797749329517,2.2623797749329517,2.2623797749329517,2.2625416323405085,2.2623797749329517,2.2623797749329517
44.754496200000006,55,1.1118608074085365,1.0,0.0,0.9252808142418238,0.18802629007888996,1.3438415177239815,2.0267155703499777,2.2594663416268563,2.2615704878977936,2.26221791752557,2.2623797749329517
44.7556387,55,1.0281682567493569,1.0,0.0,5.310358215633014,5.310358215633014,5.310358215633014,4.788030083011711,4.5761539219173715,4.856821162438662,5.310358215633014,4.6088498259422135
44.756595866666665,55,1.0281682567493569,1.0,0.0,5.310358215633014,5.310358215633014,5.310358215633014,5.310358215633014,5.310358215633014,5.310358215633014,5.310358215633014,5.310358215633014
44.75755303333334,55,1.0281682567493569,1.0,0.0,5.310358215633014,5.310358215633014,5.310358215633014,5.310358215633014,5.310358215633014,5.310358215633014,5.310358215633014,5.310358215633014
44.7585099,55,1.475777204503263,1.0,0.0,5.310358215633014,5.310358215633014,5.310358215633014,5.310358215633014,5.310358215633014,5.310358215633014,5.310358215633014,5.310358215633014
44.75965735,55,1.475777204503263,1.0,0.0,5.310358215633014,5.310358215633014,5.310358215633014,5.310358215633014,5.310358215633014,5.310358215633014,5.310358215633014,5.310358215633014
44.7608045,55,1.6583467082874428,1.0,0.0,0.926737520810067,1.1421683266591252,0.9807975257229833,0.7809050454347475,4.229286754884801,5.310358215633014,5.310358215633014,5.310358215633014
44.761580433333336,55,1.6583467082874428,1.0,0.0,2.260923058272817,2.2698252158619248,2.2615704878977936,2.261894202711332,2.2686922139574945,2.2615704878977936,2.2623797749329517,2.2528301881966524
44.762356366666666,55,1.6583467082874428,1.0,0.0,2.2615704878977936,2.2615704878977936,2.261732345304475,2.261732345304475,2.2615704878977936,2.2615704878977936,2.261732345304475,2.261732345304475
44.763132,55,1.4501481609241615,1.0,0.0,2.2620560601183635,2.261894202711332,2.261894202711332,2.261732345304475,2.261894202711332,2.261894202711332,2.2620560601183635,2.261732345304475
44.7641968,55,1.4501481609241615,1.0,0.0,2.2620560601183635,2.2620560601183635,2.261894202711332,2.2620560601183635,2.2620560601183635,2.261894202711332,2.2620560601183635,2.261894202711332
44.7652613,55,1.59859138297006,1.0,0.0,2.26221791752557,2.26221791752557,2.2620560601183635,2.2620560601183635,2.261894202711332,2.2620560601183635,2.2620560601183635,2.26221791752557
44.7663192,55,1.59859138297006,1.0,0.0,2.2620560601183635,2.2620560601183635,2.261894202711332,2.26221791752557,2.2620560601183635,2.261894202711332,2.26221791752557,2.2620560601183635
44.7673767,55,1.5376763896839272,1.0,0.0,2.2623797749329517,2.26221791752557,2.2620560601183635,2.2620560601183635,2.26221791752557,2.2623797749329517,2.26221791752557,2.26221791752557
44.7685569,55,1.5376763896839272,1.0,0.0,2.270634502941783,2.26221791752557,2.2625416323405085,2.2623797749329517,2.2623797749329517,2.26221791752557,2.2623797749329517,2.2625416323405085
44.7697367,55,1.3542028026477944,1.0,0.0,2.2623797749329517,2.2623797749329517,2.2620560601183635,2.2625416323405085,2.2625416323405085,2.2623797749329517,2.2623797749329517,2.26221791752557
44.770459566666666,55,1.3542028026477944,1.0,0.0,2.26221791752557,2.2625416323405085,2.2625416323405085,2.2625416323405085,2.2625416323405085,2.2625416323405085,2.2625416323405085,2.2625416323405085
44.77118243333334,55,1.3542028026477944,1.0,0.0,0.922529257412062,0.07035703311079504,-0.22454436084494758,0.5680642119067577,1.5345086400003793,2.16834065043228,2.2601137712455337,2.261408630491287
44.771905,55,0.9634957866565834,1.0,0.0,5.310358215633014,5.310358215633014,5.310358215633014,0.5606188316339584,0.06954775357870166,0.6140313458718176,-0.37976409684983026,0.340332757348012
44.77312795,55,0.9634957866565834,1.0,0.0,5.310358215633014,5.310358215633014,5.310358215633014,5.310358215633014,5.310358215633014,5.310358215633014,5.310358215633014,5.310358215633014
44.7743505,55,1.0593839244739662,1.0,0.0,5.310358215633014,5.310358215633014,5.310358215633014,5.310358215633014,5.310358215633014,5.310358215633014,5.310358215633014,5.310358215633014
44.7756773,55,1.0593839244739662,1.0,0.0,5.310358215633014,5.310358215633014,5.310358215633014,5.310358215633014,5.310358215633014,5.310358215633014,5.310358215633014,5.310358215633014
44.7770035,55,1.5079560832874428,1.0,0.0,-0.9972439669031731,4.162114782036877,5.310358215633014,5.310358215633014,5.310358215633014,5.310358215633014,5.310358215633014,5.310358215633014
44.77783753333333,55,1.5079560832874428,1.0,0.0,0.9260900956676583,1.4165151285370061,1.2111191729132067,0.8846548897465651,0.6574087879477469,1.1839272874654374,4.060952265201243,5.310358215633014
44.77867156666667,55,1.5079560832874428,1.0,0.0,2.2610849156787984,2.2610849156787984,2.2612467730849555,2.2612467730849555,2.2612467730849555,2.2612467730849555,2.261408630491287,2.2610849156787984
44.7795053,55,1.0395169811145912,1.0,0.0,2.2615704878977936,2.261894202711332,2.2615704878977936,2.261732345304475,2.261732345304475,2.2615704878977936,2.261732345304475,2.2615704878977936
44.78068385,55,1.0395169811145912,1.0,0.0,2.26221791752557,2.261894202711332,2.261894202711332,2.261894202711332,2.261894202711332,2.261732345304475,2.261894202711332,2.261732345304475
44.7818621,55,0.5547738628284584,1.0,0.0,2.261894202711332,2.261894202711332,2.2620560601183635,2.26221791752557,2.2620560601183635,2.261894202711332,2.2620560601183635,2.261894202711332
44.782633833333335,55,0.5547738628284584,1.0,0.0,2.2620560601183635,2.26221791752557,2.2620560601183635,2.261894202711332,2.2620560601183635,2.26221791752557,2.2620560601183635,2.2620560601183635
44.783405566666666,55,0.5547738628284584,1.0,0.0,2.2623797749329517,2.2620560601183635,2.2620560601183635,2.26221791752557,2.2620560601183635,2.26221791752557,2.2623797749329517,2.2620560601183635
44.7841768,55,1.8913274364368569,1.0,0.0,2.26221791752557,2.2625416323405085,2.26221791752557,2.2620560601183635,2.26221791752557,2.26221791752557,2.26221791752557,2.26221791752557
44.7854205,55,1.8913274364368569,1.0,0.0,2.2623797749329517,2.2623797749329517,2.2623797749329517,2.2623797749329517,2.2627034897482408,2.26221791752557,2.2623797749329517,2.2625416323405085
44.7866639,55,2.467316205968107,1.0,0.0,2.2623797749329517,2.2625416323405085,2.2625416323405085,2.2623797749329517,2.2623797749329517,2.2623797749329517,2.2625416323405085,2.2623797749329517
44.78802425,55,2.467316205968107,1.0,0.0,2.26221791752557,2.2623797749329517,2.2625416323405085,2.2625416323405085,2.2625416323405085,2.2623797749329517,2.2625416323405085,2.2625416323405085
44.7893843,55,1.7205014781849037,1.0,0.0,5.310358215633014,4.892754408553263,3.1514654175149777,4.7582476103005815,3.1495231153838232,3.6229602668345784,5.040372239658397,3.6556558333465454
44.790276133333336,55,1.7205014781849037,1.0,0.0,5.310358215633014,5.310358215633014,5.310358215633014,5.310358215633014,5.310358215633014,5.310358215633014,5.310358215633014,3.342944199150894
44.79116796666666,55,1.7205014781849037,1.0,0.0,5.310358215633014,5.310358215633014,5.310358215633014,5.310358215633014,5.310358215633014,5.310358215633014,5.310358215633014,5.310358215633014
44.7920595,55,1.2192140178577553,1.0,0.0,5.310358215633014,5.310358215633014,5.310358215633014,5.310358215633014,5.310358215633014,5.310358215633014,5.310358215633014,5.310358215633014
44.7929439,55,1.2192140178577553,1.0,0.0,5.310358215633014,5.310358215633014,5.310358215633014,5.310358215633014,5.310358215633014,5.310358215633014,5.310358215633014,5.310358215633014
44.7938283,55,1.2192140178577553,1.0,0.0,0.9286797962465867,1.0932876918543746,0.9416282995140806,3.205526173351862,5.310358215633014,5.310358215633014,5.310358215633014,5.310358215633014
44.7947123,55,1.1897492961780678,1.0,0.0,2.2607612008670106,5.310358215633014,5.310358215633014,5.310358215633014,5.310358215633014,5.310358215633014,5.310358215633014,5.310358215633014
44.7959096,55,1.1897492961780678,1.0,0.0,2.2612467730849555,2.261408630491287,2.2612467730849555,2.261408630491287,2.261408630491287,2.261408630491287,2.2612467730849555,2.261408630491287
44.7971052,55,1.124998624791349,1.0,0.0,2.261732345304475,2.261732345304475,2.2615704878977936,2.261894202711332,2.261732345304475,2.2615704878977936,2.2615704878977936,2.261732345304475
44.79789283333333,55,1.124998624791349,1.0,0.0,2.261894202711332,2.2615704878977936,2.261894202711332,2.2620560601183635,2.261732345304475,2.261894202711332,2.261732345304475,2.261894202711332
44.79868046666667,55,1.124998624791349,1.0,0.0,2.26221791752557,2.261894202711332,2.2620560601183635,2.2620560601183635,2.26221791752557,2.2620560601183635,2.2620560601183635,2.26221791752557
44.7994678,55,1.077086027135099,1.0,0.0,2.261732345304475,2.2620560601183635,2.26221791752557,2.26221791752557,2.261894202711332,2.2620560601183635,2.2620560601183635,2.2620560601183635
44.80060865,55,1.077086027135099,1.0,0.0,2.2620560601183635,2.26221791752557,2.26221791752557,2.26221791752557,2.261894202711332,2.26221791752557,2.2620560601183635,2.26221791752557
44.8017491,55,1.0322785930530678,1.0,0.0,2.2620560601183635,2.2623797749329517,2.2623797749329517,2.26221791752557,2.26221791752557,2.2623797749329517,2.26221791752557,2.26221791752557
44.80248593333334,55,1.0322785930530678,1.0,0.0,2.26221791752557,2.2623797749329517,2.2623797749329517,2.2623797749329517,2.2623797749329517,2.26221791752557,2.26221791752557,2.2623797749329517
44.803222766666664,55,1.0322785930530678,1.0,0.0,2.2623797749329517,2.2623797749329517,2.2623797749329517,2.2623797749329517,2.2623797749329517,2.26221791752557,2.2625416323405085,2.2623797749329517
44.8039592,55,1.234831388463224,1.0,0.0,0.9239859639655166,0.20583044412421433,1.3932077762520882,2.0540694331428906,2.259790056435845,2.2615704878977936,2.26221791752557,2.2623797749329517
44.805992,55,1.234831388463224,1.0,0.0,5.310358215633014,5.310358215633014,5.310358215633014,4.7794514348616675,4.671651895265511,4.453625324422275,5.302750683856731,5.310358215633014
44.8080241,55,1.3122296886341225,1.0,0.0,5.310358215633014,5.310358215633014,5.310358215633014,5.310358215633014,5.310358215633014,5.310358215633014,5.310358215633014,5.310358215633014
44.808646075,55,1.3122296886341225,1.0,0.0,5.310358215633014,5.310358215633014,5.310358215633014,5.310358215633014,5.310358215633014,5.310358215633014,5.310358215633014,5.310358215633014
44.80926805,55,1.3122296886341225,1.0,0.0,5.310358215633014,5.310358215633014,5.310358215633014,5.310358215633014,5.310358215633014,5.310358215633014,5.310358215633014,5.310358215633014
44.809890025,55,1.3122296886341225,1.0,0.0,5.310358215633014,5.310358215633014,5.310358215633014,5.310358215633014,5.310358215633014,5.310358215633014,5.310358215633014,5.310358215633014
44.8105116,55,2.020630414952482,1.0,0.0,0.925928239382298,1.119832141320723,0.941142730630301,0.7226368181972541,4.466736037832646,5.310358215633014,5.310358215633014,5.310358215633014
44.81173405,55,2.020630414952482,1.0,0.0,2.260923058272817,2.2620560601183635,2.261894202711332,2.2638364916072677,2.261894202711332,2.261408630491287,2.2698252158619248,2.1649416470152527
44.8129559,55,1.782438810338224,1.0,0.0,2.261732345304475,2.261732345304475,2.261732345304475,2.2615704878977936,2.2615704878977936,2.261732345304475,2.261732345304475,2.261894202711332
44.813717,55,1.782438810338224,1.0,0.0,2.261732345304475,2.2620560601183635,2.2620560601183635,2.261732345304475,2.261894202711332,2.261408630491287,2.2620560601183635,2.261732345304475
44.8144781,55,1.782438810338224,1.0,0.0,2.261894202711332,2.2620560601183635,2.2620560601183635,2.2620560601183635,2.2620560601183635,2.2620560601183635,2.2620560601183635,2.261894202711332
44.8152387,55,1.5205636577503334,1.0,0.0,2.2620560601183635,2.2620560601183635,2.2620560601183635,2.2620560601183635,2.2620560601183635,2.2620560601183635,2.2620560601183635,2.2620560601183635
44.816305400000005,55,1.5205636577503334,1.0,0.0,2.26221791752557,2.26221791752557,2.26221791752557,2.26221791752557,2.2620560601183635,2.26221791752557,2.2620560601183635,2.26221791752557
44.8173717,55,1.920908506383146,1.0,0.0,2.2620560601183635,2.26221791752557,2.2623797749329517,2.26221791752557,2.26221791752557,2.2623797749329517,2.26221791752557,2.26221791752557
44.818718450000006,55,1.920908506383146,1.0,0.0,1.4284925189160678,2.1519930632529034,2.2599519138406023,2.2612467730849555,2.2623797749329517,2.2623797749329517,2.2623797749329517,2.2625416323405085
44.8200648,55,1.6238656597034584,1.0,0.0,2.2623797749329517,2.2623797749329517,2.2623797749329517,2.2623797749329517,2.26221791752557,2.26221791752557,2.26221791752557,2.2623797749329517
44.820833433333334,55,1.6238656597034584,1.0,0.0,2.2623797749329517,2.2625416323405085,2.2623797749329517,2.2623797749329517,2.2625416323405085,2.2623797749329517,2.2623797749329517,2.2625416323405085
44.821602066666664,55,1.6238656597034584,1.0,0.0,0.9257663830970342,0.02503738107219971,-0.23862581859018298,0.6114416480174828,1.5579778652310816,2.1846882393413587,2.260437486055922,2.261732345304475
44.8223704,55,1.498299177159513,1.0,0.0,5.310358215633014,5.310358215633014,5.310358215633014,0.657085075672132,-1.0224934727912023,0.8169989807919468,0.05449515449254606,-0.7237076705093783
44.82354545,55,1.498299177159513,1.0,0.0,5.310358215633014,5.310358215633014,5.310358215633014,5.310358215633014,5.310358215633014,5.310358215633014,5.310358215633014,5.310358215633014
