Time,Target torque,Current elbow Torque(N),Target force,Current shoulder Torque (N),Bicep (EMG_1),Tricep lateral (EMG_2),Anterior Deltoid (EMG_3),Medial Deltoid (EMG_4),Posterior Deltoid (EMG_5),Pectoralis Major (EMG_6),Lower Trapezius (EMG_7),Middle Trapezius (EMG_8)
22.3185085,1.0,0.5800481395618569,1.0,0.0,2.261894202711332,2.2620560601183635,2.261894202711332,2.2620560601183635,2.2620560601183635,2.261894202711332,2.261894202711332,2.2620560601183635
22.31962195,1.0,0.5800481395618569,1.0,0.0,2.2620560601183635,2.2620560601183635,2.2620560601183635,2.2620560601183635,2.2620560601183635,2.261894202711332,2.26221791752557,2.26221791752557
22.3207351,1.0,0.897703702916349,1.0,0.0,2.2625416323405085,2.26221791752557,2.26221791752557,2.2620560601183635,2.2620560601183635,2.26221791752557,2.26221791752557,2.26221791752557
22.3217363,1.0,0.897703702916349,1.0,0.0,2.261732345304475,2.26221791752557,2.2623797749329517,2.2620560601183635,2.2620560601183635,2.2620560601183635,2.2620560601183635,2.2620560601183635
22.3227375,1.0,0.897703702916349,1.0,0.0,2.2623797749329517,2.2623797749329517,2.26221791752557,2.26221791752557,2.2623797749329517,2.2625416323405085,2.26221791752557,2.26221791752557
22.3237384,1.0,1.6695180492298256,1.0,0.0,2.2625416323405085,2.2625416323405085,2.26221791752557,2.2623797749329517,2.2623797749329517,2.2623797749329517,2.2623797749329517,2.26221791752557
22.32521625,1.0,1.6695180492298256,1.0,0.0,0.6766696689326039,1.72177695159641,2.248460038537007,2.260923058272817,2.26221791752557,2.2623797749329517,2.2623797749329517,2.2625416323405085
22.3266937,1.0,0.7385411815540444,1.0,0.0,5.310358215633014,4.32219457820568,0.22169232737443612,-3.827789201127171,-5.296978735969328,-5.095140046832712,-5.296978735969328,-5.296978735969328
22.32752365,1.0,0.7385411815540444,1.0,0.0,5.310358215633014,5.310358215633014,5.310358215633014,5.310358215633014,-3.502617764875559,-5.296978735969328,-5.296978735969328,-5.296978735969328
22.3283536,1.0,0.7385411815540444,1.0,0.0,5.310358215633014,5.310358215633014,5.310358215633014,5.310358215633014,5.310358215633014,-1.0025852084996443,-4.031082413435857,-5.296978735969328
22.32918355,1.0,0.7385411815540444,1.0,0.0,5.310358215633014,5.310358215633014,5.310358215633014,5.310358215633014,5.310358215633014,5.310358215633014,5.310358215633014,5.310358215633014
22.3300131,1.0,1.2867189006702553,1.0,0.0,5.310358215633014,5.310358215633014,5.310358215633014,5.310358215633014,5.310358215633014,5.310358215633014,5.310358215633014,5.310358215633014
22.3312585,1.0,1.2867189006702553,1.0,0.0,0.2827120261463082,0.4623721978270785,0.36347816562312224,0.16569017046289866,2.8709649486425413,5.177307452537013,5.310358215633014,5.310358215633014
22.3325039,1.0,1.2867189006702553,1.0,0.0,2.2607612008670106,3.47534476811893,5.310358215633014,1.3156784769444754,0.9856532153274924,2.813343466642992,-0.24947015946518403,-0.5220353503514881
22.3337489,1.0,1.669676359166349,1.0,0.0,2.261732345304475,2.2615704878977936,2.2615704878977936,2.2615704878977936,2.2615704878977936,2.261408630491287,2.2615704878977936,2.2615704878977936
22.334362525,1.0,1.669676359166349,1.0,0.0,2.261894202711332,2.261894202711332,2.261732345304475,2.261732345304475,2.261894202711332,2.261894202711332,2.261894202711332,2.261732345304475
22.33497615,1.0,1.669676359166349,1.0,0.0,2.2615704878977936,2.261732345304475,2.2620560601183635,2.261732345304475,2.2620560601183635,2.2620560601183635,2.26221791752557,2.2620560601183635
22.335589775,1.0,1.669676359166349,1.0,0.0,2.2623797749329517,2.26221791752557,2.26221791752557,2.261894202711332,2.2620560601183635,2.261894202711332,2.2620560601183635,2.2620560601183635
22.3362031,1.0,1.732399518956388,1.0,0.0,2.261894202711332,2.2620560601183635,2.26221791752557,2.261894202711332,2.261894202711332,2.2620560601183635,2.26221791752557,2.26221791752557
22.337380099999997,1.0,1.732399518956388,1.0,0.0,2.2615704878977936,2.2620560601183635,2.26221791752557,2.26221791752557,2.26221791752557,2.26221791752557,2.26221791752557,2.26221791752557
22.3385568,1.0,1.4808717327015053,1.0,0.0,0.2747810834020896,0.8422485525853454,1.7420090621749584,2.255743621373749,2.260599343461379,2.261894202711332,2.26221791752557,2.2623797749329517
22.33924693333333,1.0,1.4808717327015053,1.0,0.0,2.2623797749329517,2.2623797749329517,2.26221791752557,2.26221791752557,2.2625416323405085,2.2623797749329517,2.2623797749329517,2.2623797749329517
22.339937066666668,1.0,1.4808717327015053,1.0,0.0,2.2625416323405085,2.2625416323405085,2.2623797749329517,2.26221791752557,2.2623797749329517,2.26221791752557,2.2625416323405085,2.26221791752557
22.3406268,1.0,1.419289167393888,1.0,0.0,0.2791511946926637,-0.18035771610703932,0.6012447129105143,1.5694696937818944,2.1366166214362385,2.260275628650641,2.261894202711332,2.2623797749329517
22.3431601,1.0,1.5924935893909584,1.0,0.0,5.310358215633014,5.310358215633014,1.251745150603414,-3.5273819168614313,-5.129777932577359,-5.296978735969328,-5.296978735969328,-4.237127517964118
22.344359066666666,1.0,1.5924935893909584,1.0,0.0,5.310358215633014,5.310358215633014,5.310358215633014,5.310358215633014,3.3317759433666954,-3.3600216425860885,-5.207794148601784,-5.296978735969328
22.345558033333333,1.0,1.5924935893909584,1.0,0.0,5.310358215633014,5.310358215633014,5.310358215633014,5.310358215633014,5.310358215633014,5.310358215633014,5.310358215633014,5.310358215633014
22.3467565,1.0,1.7865300731556069,1.0,0.0,5.310358215633014,5.310358215633014,5.310358215633014,5.310358215633014,5.310358215633014,5.310358215633014,5.310358215633014,5.310358215633014
22.348027633333334,1.0,1.7865300731556069,1.0,0.0,5.310358215633014,5.310358215633014,5.310358215633014,5.310358215633014,5.310358215633014,5.310358215633014,5.310358215633014,5.310358215633014
22.349298766666667,1.0,1.7865300731556069,1.0,0.0,0.27283881173110497,0.8268722105243124,0.7567884722442391,0.5044547724729398,0.7143821535711019,3.9188393461037334,5.310358215633014,5.310358215633014
22.3505696,1.0,1.8427243785755287,1.0,0.0,2.2607612008670106,2.268206641715371,3.349256692052562,2.238586737921526,3.0940056598963017,2.258818912010977,2.2550961917739496,3.142563199682256
22.351223175,1.0,1.8427243785755287,1.0,0.0,2.261732345304475,2.261894202711332,2.261732345304475,2.261732345304475,2.261732345304475,2.261732345304475,2.261732345304475,2.261894202711332
22.351876750000002,1.0,1.8427243785755287,1.0,0.0,2.261894202711332,2.261732345304475,2.261894202711332,2.2620560601183635,2.261894202711332,2.261894202711332,2.261732345304475,2.261732345304475
22.352530325,1.0,1.8427243785755287,1.0,0.0,2.2620560601183635,2.261894202711332,2.2620560601183635,2.261894202711332,2.2620560601183635,2.261894202711332,2.261894202711332,2.2620560601183635
22.3531836,1.0,1.8422723369495522,1.0,0.0,2.2620560601183635,2.2620560601183635,2.2620560601183635,2.2620560601183635,2.2620560601183635,2.2620560601183635,2.2620560601183635,2.2620560601183635
22.354132733333334,1.0,1.8422723369495522,1.0,0.0,2.2625416323405085,2.26221791752557,2.26221791752557,2.2623797749329517,2.26221791752557,2.26221791752557,2.26221791752557,2.26221791752557
22.35508186666667,1.0,1.8422723369495522,1.0,0.0,2.262865347156148,2.2623797749329517,2.26221791752557,2.2623797749329517,2.26221791752557,2.26221791752557,2.2623797749329517,2.26221791752557
22.3560307,1.0,1.148720319737638,1.0,0.0,2.2623797749329517,2.2623797749329517,2.2623797749329517,2.2623797749329517,2.2623797749329517,2.2623797749329517,2.26221791752557,2.2625416323405085
22.3567906,1.0,1.148720319737638,1.0,0.0,2.2623797749329517,2.2623797749329517,2.2625416323405085,2.2623797749329517,2.26221791752557,2.26221791752557,2.2623797749329517,2.2623797749329517
22.357550500000002,1.0,1.148720319737638,1.0,0.0,2.2625416323405085,2.2623797749329517,2.2625416323405085,2.2625416323405085,2.26221791752557,2.2623797749329517,2.2623797749329517,2.2625416323405085
22.3583101,1.0,1.8183141307727944,1.0,0.0,0.28287388212215187,-0.5995642771735347,-0.6526529775993215,-0.4882074879618239,0.43550409494626596,1.4993857357088154,2.168988079663047,2.260275628650641
22.35939545,1.0,1.8183141307727944,1.0,0.0,5.310358215633014,5.310358215633014,5.310358215633014,0.5204785233205341,-2.031341448433997,-1.0063078920470652,1.9624582893997984,-2.217476018307362
22.3604805,1.0,2.147987897862638,1.0,0.0,5.310358215633014,5.310358215633014,5.310358215633014,5.310358215633014,5.310358215633014,0.5983313029366992,-3.235553615929008,-5.296978735969328
22.362416850000002,1.0,2.147987897862638,1.0,0.0,5.310358215633014,5.310358215633014,5.310358215633014,5.310358215633014,5.310358215633014,5.310358215633014,5.310358215633014,5.310358215633014
22.3643526,1.0,1.635038907994474,1.0,0.0,5.310358215633014,5.310358215633014,5.310358215633014,5.310358215633014,5.310358215633014,5.310358215633014,5.310358215633014,5.310358215633014
22.3651348,1.0,1.635038907994474,1.0,0.0,0.2632893094708748,0.6397664693969969,4.327697832104323,5.310358215633014,5.310358215633014,5.310358215633014,5.310358215633014,5.310358215633014
22.365917,1.0,1.635038907994474,1.0,0.0,0.2906429690322535,1.058488570363867,1.0232038846680929,0.7295966336416471,0.48940215868357445,0.254387231274218,1.8399325096352368,4.010937557499451
22.3666992,1.0,1.635038907994474,1.0,0.0,2.261408630491287,2.261408630491287,2.2615704878977936,2.261408630491287,2.261408630491287,2.261408630491287,2.2612467730849555,2.2612467730849555
22.3674811,1.0,1.3235784129993569,1.0,0.0,2.261894202711332,2.261894202711332,2.261732345304475,2.261732345304475,2.261732345304475,2.261732345304475,2.2615704878977936,2.261732345304475
22.368323933333333,1.0,1.3235784129993569,1.0,0.0,2.2620560601183635,2.261894202711332,2.261732345304475,2.261894202711332,2.2620560601183635,2.2615704878977936,2.261894202711332,2.261894202711332
22.369166766666666,1.0,1.3235784129993569,1.0,0.0,2.26221791752557,2.261894202711332,2.26221791752557,2.2620560601183635,2.261894202711332,2.261894202711332,2.2620560601183635,2.2620560601183635
22.3700093,1.0,1.461302335728849,1.0,0.0,2.2620560601183635,2.261894202711332,2.26221791752557,2.2620560601183635,2.2620560601183635,2.2620560601183635,2.2620560601183635,2.26221791752557
22.370889266666666,1.0,1.461302335728849,1.0,0.0,2.26221791752557,2.2623797749329517,2.2620560601183635,2.26221791752557,2.26221791752557,2.26221791752557,2.26221791752557,2.2623797749329517
22.371769233333335,1.0,1.461302335728849,1.0,0.0,2.26221791752557,2.2623797749329517,2.2623797749329517,2.26221791752557,2.26221791752557,2.26221791752557,2.26221791752557,2.2625416323405085
22.3726488,1.0,2.2881303386585365,1.0,0.0,2.2625416323405085,2.2623797749329517,2.2623797749329517,2.2623797749329517,2.2623797749329517,2.2623797749329517,2.26221791752557,2.2620560601183635
22.3738386,1.0,2.2881303386585365,1.0,0.0,2.2627034897482408,2.2623797749329517,2.2623797749329517,2.2623797749329517,2.26221791752557,2.2623797749329517,2.2623797749329517,2.2623797749329517
22.3750281,1.0,2.334490354527677,1.0,0.0,0.9294890776825869,1.837504654909524,2.2583333398009042,2.2610849156787984,2.2620560601183635,2.2625416323405085,2.2627034897482408,2.2625416323405085
22.3758397,1.0,2.334490354527677,1.0,0.0,5.310358215633014,3.058558668587096,-0.6929550699811005,-5.296978735969328,-5.145478286547554,-5.296978735969328,-5.296978735969328,-5.296978735969328
22.376651300000002,1.0,2.334490354527677,1.0,0.0,5.310358215633014,5.310358215633014,5.310358215633014,5.310358215633014,-3.1981646680336033,-5.296978735969328,-5.296978735969328,-5.296978735969328
22.3774626,1.0,1.4174199657337319,1.0,0.0,5.310358215633014,5.310358215633014,5.310358215633014,5.310358215633014,5.310358215633014,1.3752416939572805,-3.5919629588485757,-5.296978735969328
22.3795267,1.0,1.4174199657337319,1.0,0.0,5.310358215633014,5.310358215633014,5.310358215633014,5.310358215633014,5.310358215633014,5.310358215633014,5.310358215633014,5.310358215633014
22.3815888,1.0,1.5605130748645912,1.0,0.0,5.310358215633014,5.310358215633014,5.310358215633014,5.310358215633014,5.310358215633014,5.310358215633014,5.310358215633014,5.310358215633014
22.382342825,1.0,1.5605130748645912,1.0,0.0,0.31815848628175464,0.4041040252757715,0.3409801813382293,0.15711180594825563,3.0478760157620584,5.310358215633014,5.310358215633014,5.310358215633014
22.38309685,1.0,1.5605130748645912,1.0,0.0,2.2612467730849555,5.310358215633014,2.844420217687689,1.8438170772667366,2.132570189631107,0.8776950706126324,1.242033760856039,-0.7541365594517637
22.383850875,1.0,1.5605130748645912,1.0,0.0,2.2615704878977936,2.261732345304475,2.261408630491287,2.2615704878977936,2.261732345304475,2.261408630491287,2.261408630491287,2.2615704878977936
22.3846045,1.0,2.0750165538684975,1.0,0.0,2.261894202711332,2.261732345304475,2.261894202711332,2.261732345304475,2.2620560601183635,2.2615704878977936,2.261894202711332,2.261894202711332
22.38536613333333,1.0,2.0750165538684975,1.0,0.0,2.2620560601183635,2.261894202711332,2.261894202711332,2.261894202711332,2.2620560601183635,2.261894202711332,2.261732345304475,2.261894202711332
22.386127766666668,1.0,2.0750165538684975,1.0,0.0,2.2625416323405085,2.26221791752557,2.2620560601183635,2.26221791752557,2.2620560601183635,2.2620560601183635,2.26221791752557,2.2620560601183635
22.386889,1.0,1.9150872783558022,1.0,0.0,2.261732345304475,2.26221791752557,2.26221791752557,2.2620560601183635,2.2620560601183635,2.26221791752557,2.2623797749329517,2.26221791752557
22.387708866666667,1.0,1.9150872783558022,1.0,0.0,2.2623797749329517,2.26221791752557,2.2620560601183635,2.2620560601183635,2.26221791752557,2.26221791752557,2.2620560601183635,2.26221791752557
22.388528733333334,1.0,1.9150872783558022,1.0,0.0,0.3050481513748909,0.9293272213951931,1.8159776778158225,2.2581714823978962,2.2610849156787984,2.2620560601183635,2.2620560601183635,2.2623797749329517
22.3893483,1.0,1.5878129558460365,1.0,0.0,2.2627034897482408,2.2623797749329517,2.2623797749329517,2.2623797749329517,2.2623797749329517,2.2623797749329517,2.2623797749329517,2.2623797749329517
22.3904309,1.0,1.5878129558460365,1.0,0.0,2.26221791752557,2.2625416323405085,2.2623797749329517,2.2623797749329517,2.2623797749329517,2.2623797749329517,2.2623797749329517,2.2625416323405085
22.3915131,1.0,1.1062150554554115,1.0,0.0,0.3484255572976915,-0.18715566160116676,0.5706539094304763,1.547942747893345,2.119783465814137,2.260275628650641,2.2615704878977936,2.2623797749329517
22.3922067,1.0,1.1062150554554115,1.0,0.0,5.310358215633014,5.310358215633014,2.2868202454622053,-1.452706302701442,-4.253475179722841,-5.296978735969328,-3.8625885756667673,-4.350104471370936
22.3929003,1.0,1.1062150554554115,1.0,0.0,5.310358215633014,5.310358215633014,5.310358215633014,5.310358215633014,5.163387313304845,-3.169192285165068,-4.887312975517328,-5.296978735969328
22.3935936,1.0,1.522551115025724,1.0,0.0,5.310358215633014,5.310358215633014,5.310358215633014,5.310358215633014,5.310358215633014,5.310358215633014,5.310358215633014,5.310358215633014
22.3969373,1.0,1.2513738231556069,1.0,0.0,5.310358215633014,5.310358215633014,5.310358215633014,5.310358215633014,5.310358215633014,5.310358215633014,5.310358215633014,5.310358215633014
22.397813550000002,1.0,1.2513738231556069,1.0,0.0,5.310358215633014,5.310358215633014,5.310358215633014,5.310358215633014,5.310358215633014,5.310358215633014,5.310358215633014,5.310358215633014
22.3986898,1.0,1.2513738231556069,1.0,0.0,0.3408183253405814,0.8540640581001693,0.7809050454347475,0.5167558336662439,0.757274040812849,3.848268544370236,5.310358215633014,5.310358215633014
22.39956605,1.0,1.2513738231556069,1.0,0.0,2.261408630491287,3.2524651738011245,2.2487837533222517,2.638213166847121,2.259790056435845,2.257524052787612,2.1816129502061212,2.259790056435845
22.4004419,1.0,0.9202447490589272,1.0,0.0,2.261894202711332,2.261732345304475,2.2615704878977936,2.261732345304475,2.261894202711332,2.261732345304475,2.261894202711332,2.261732345304475
22.4013599,1.0,0.9202447490589272,1.0,0.0,2.261894202711332,2.261894202711332,2.261894202711332,2.261732345304475,2.2620560601183635,2.261894202711332,2.261894202711332,2.261894202711332
22.4022779,1.0,0.9202447490589272,1.0,0.0,2.261732345304475,2.261894202711332,2.26221791752557,2.2620560601183635,2.261894202711332,2.261732345304475,2.2620560601183635,2.2620560601183635
22.4031953,1.0,1.1814885692493569,1.0,0.0,2.2623797749329517,2.26221791752557,2.26221791752557,2.2620560601183635,2.2620560601183635,2.2620560601183635,2.26221791752557,2.26221791752557
22.404046366666666,1.0,1.1814885692493569,1.0,0.0,2.2625416323405085,2.2623797749329517,2.2623797749329517,2.26221791752557,2.26221791752557,2.26221791752557,2.26221791752557,2.26221791752557
22.404897433333335,1.0,1.1814885692493569,1.0,0.0,2.2623797749329517,2.26221791752557,2.26221791752557,2.2620560601183635,2.26221791752557,2.2625416323405085,2.26221791752557,2.2623797749329517
22.405748,1.0,1.3830380992786537,1.0,0.0,2.2625416323405085,2.2623797749329517,2.2623797749329517,2.2623797749329517,2.2623797749329517,2.26221791752557,2.26221791752557,2.2623797749329517
22.40647003333333,1.0,1.3830380992786537,1.0,0.0,2.2625416323405085,2.2625416323405085,2.2625416323405085,2.2623797749329517,2.2625416323405085,2.2625416323405085,2.2623797749329517,2.2623797749329517
22.407192066666667,1.0,1.3830380992786537,1.0,0.0,2.2623797749329517,2.2625416323405085,2.2625416323405085,2.2623797749329517,2.2625416323405085,2.2625416323405085,2.2625416323405085,2.26221791752557
22.4079137,1.0,1.6727433757679115,1.0,0.0,0.3532812373428796,-0.6154261450508763,-0.6754746443922973,-0.509248742145347,0.2508264000442343,1.400005753734721,2.1063493140638876,2.260275628650641
22.409017650000003,1.0,1.6727433757679115,1.0,0.0,5.310358215633014,5.310358215633014,5.310358215633014,0.42579273292243514,-2.73088436269487,-1.0233027518329192,0.43178140614164834,-2.945991787139048
22.4101212,1.0,2.161560590733732,1.0,0.0,5.310358215633014,5.310358215633014,5.310358215633014,5.310358215633014,5.310358215633014,1.0589741394674923,-3.2792549935638333,-5.296978735969328
22.41200355,1.0,2.161560590733732,1.0,0.0,5.310358215633014,5.310358215633014,5.310358215633014,5.310358215633014,5.310358215633014,5.310358215633014,5.310358215633014,5.310358215633014
22.4138854,1.0,2.0146318035022865,1.0,0.0,5.310358215633014,5.310358215633014,5.310358215633014,5.310358215633014,5.310358215633014,5.310358215633014,5.310358215633014,5.310358215633014
22.414792600000002,1.0,2.0146318035022865,1.0,0.0,0.38112047070706173,3.5054505437643346,5.310358215633014,5.310358215633014,5.310358215633014,5.310358215633014,5.310358215633014,5.310358215633014
22.4156998,1.0,2.0146318035022865,1.0,0.0,0.34729256529529995,1.1340755056449503,1.0649628251563061,0.7553317665430966,0.5018650754327638,0.2674975646792465,2.322590742706709,4.378036435170178
22.4166067,1.0,1.312111433018888,1.0,0.0,2.260923058272817,2.261408630491287,2.2615704878977936,2.2615704878977936,2.261408630491287,2.2612467730849555,2.261408630491287,2.2615704878977936
22.417527166666666,1.0,1.312111433018888,1.0,0.0,2.261732345304475,2.261894202711332,2.261732345304475,2.2615704878977936,2.2615704878977936,2.261732345304475,2.261732345304475,2.261894202711332
22.418447633333333,1.0,1.312111433018888,1.0,0.0,2.261732345304475,2.261894202711332,2.261894202711332,2.261732345304475,2.261732345304475,2.2620560601183635,2.2620560601183635,2.2620560601183635
22.4193678,1.0,0.9986062602893959,1.0,0.0,2.261732345304475,2.261894202711332,2.2620560601183635,2.2620560601183635,2.2620560601183635,2.2620560601183635,2.261894202711332,2.261894202711332
22.420098133333333,1.0,0.9986062602893959,1.0,0.0,2.2620560601183635,2.2620560601183635,2.2620560601183635,2.2620560601183635,2.2620560601183635,2.2620560601183635,2.26221791752557,2.2620560601183635
22.420828466666666,1.0,0.9986062602893959,1.0,0.0,2.2620560601183635,2.2623797749329517,2.26221791752557,2.2620560601183635,2.26221791752557,2.2623797749329517,2.261894202711332,2.26221791752557
22.4215585,1.0,1.3178163127796303,1.0,0.0,2.2625416323405085,2.26221791752557,2.2623797749329517,2.2625416323405085,2.2623797749329517,2.26221791752557,2.26221791752557,2.26221791752557
22.42258945,1.0,1.3178163127796303,1.0,0.0,2.2625416323405085,2.2623797749329517,2.2623797749329517,2.26221791752557,2.2623797749329517,2.2623797749329517,2.26221791752557,2.2623797749329517
22.4236201,1.0,1.8822789745227944,1.0,0.0,2.2623797749329517,2.2625416323405085,2.2623797749329517,2.2623797749329517,2.2623797749329517,2.2623797749329517,2.2625416323405085,2.2623797749329517
22.4243732,1.0,1.8822789745227944,1.0,0.0,0.9314313531388779,1.808046686920146,2.2578477675924042,2.2610849156787984,2.2620560601183635,2.2623797749329517,2.2623797749329517,2.2623797749329517
22.4251263,1.0,1.8822789745227944,1.0,0.0,5.310358215633014,4.208406786915767,-0.5610425977328677,-5.015667184948628,-4.930691177694326,-5.296978735969328,-5.296978735969328,-5.296978735969328
22.4258791,1.0,2.4562230663196694,1.0,0.0,5.310358215633014,5.310358215633014,5.310358215633014,5.310358215633014,-3.4169953339058945,-5.296978735969328,-5.296978735969328,-5.296978735969328
22.42688025,1.0,2.4562230663196694,1.0,0.0,5.310358215633014,5.310358215633014,5.310358215633014,5.310358215633014,5.310358215633014,-1.2638205076393656,-4.2002238931872755,-5.296978735969328
22.4278811,1.0,2.0003514842884194,1.0,0.0,5.310358215633014,5.310358215633014,5.310358215633014,5.310358215633014,5.310358215633014,5.310358215633014,5.310358215633014,5.310358215633014
22.42900795,1.0,2.0003514842884194,1.0,0.0,5.310358215633014,5.310358215633014,5.310358215633014,5.310358215633014,5.310358215633014,5.310358215633014,5.310358215633014,5.310358215633014
22.4301344,1.0,1.8076749400989662,1.0,0.0,0.35587093339020837,0.4610773494518591,0.3728658141048112,0.17232626386713473,3.0558070761005203,5.294819428154945,5.310358215633014,5.310358215633014
22.43137595,1.0,1.8076749400989662,1.0,0.0,2.2610849156787984,5.310358215633014,3.6742696506395687,5.310358215633014,2.259142626818567,2.1570106393324924,1.875055478466932,1.9095310262789333
22.4326172,1.0,1.881235654820646,1.0,0.0,2.2615704878977936,2.2615704878977936,2.2615704878977936,2.261732345304475,2.2615704878977936,2.261408630491287,2.2615704878977936,2.2615704878977936
22.433503299999998,1.0,1.881235654820646,1.0,0.0,2.261732345304475,2.261894202711332,2.261894202711332,2.2615704878977936,2.261894202711332,2.261732345304475,2.261732345304475,2.261732345304475
22.4343894,1.0,1.881235654820646,1.0,0.0,2.26221791752557,2.261894202711332,2.261732345304475,2.261894202711332,2.261894202711332,2.261894202711332,2.2620560601183635,2.261894202711332
22.4352752,1.0,2.129381711949552,1.0,0.0,2.2620560601183635,2.2620560601183635,2.261894202711332,2.26221791752557,2.2620560601183635,2.2620560601183635,2.2620560601183635,2.261894202711332
22.43676245,1.0,2.129381711949552,1.0,0.0,2.261894202711332,2.26221791752557,2.2620560601183635,2.2620560601183635,2.2620560601183635,2.261894202711332,2.2620560601183635,2.26221791752557
22.4382493,1.0,1.815895612706388,1.0,0.0,2.2623797749329517,2.26221791752557,2.26221791752557,2.26221791752557,2.2623797749329517,2.26221791752557,2.2623797749329517,2.26221791752557
22.438997699999998,1.0,1.815895612706388,1.0,0.0,0.35004411730645346,1.0280595750690926,1.8621069176991398,2.2584951972040868,2.2610849156787984,2.261894202711332,2.26221791752557,2.2620560601183635
22.4397461,1.0,1.815895612706388,1.0,0.0,2.26221791752557,2.2623797749329517,2.26221791752557,2.2623797749329517,2.26221791752557,2.2623797749329517,2.2623797749329517,2.2623797749329517
22.4404942,1.0,1.6656041698352944,1.0,0.0,2.2623797749329517,2.2623797749329517,2.2623797749329517,2.2625416323405085,2.26221791752557,2.26221791752557,2.2623797749329517,2.2627034897482408
22.441857249999998,1.0,1.6656041698352944,1.0,0.0,0.3568420694121335,-0.16109687023258473,0.4940959844224805,1.5032702962484696,2.092267734540571,2.2599519138406023,2.2615704878977936,2.2623797749329517
22.4432198,1.0,1.503590162266935,1.0,0.0,5.310358215633014,5.310358215633014,3.0061165639352465,-2.9270545557613104,-4.488493287828015,-4.1969867336260815,-5.296978735969328,-3.5424346385734244
22.44443486666667,1.0,1.503590162266935,1.0,0.0,5.310358215633014,5.310358215633014,5.310358215633014,5.310358215633014,5.310358215633014,-2.505742051058876,-4.3675851552796185,-5.296978735969328
22.445649933333332,1.0,1.503590162266935,1.0,0.0,5.310358215633014,5.310358215633014,5.310358215633014,5.310358215633014,5.310358215633014,5.310358215633014,5.310358215633014,5.310358215633014
22.4468645,1.0,1.2459455089466225,1.0,0.0,5.310358215633014,5.310358215633014,5.310358215633014,5.310358215633014,5.310358215633014,5.310358215633014,5.310358215633014,5.310358215633014
22.447689275000002,1.0,1.2459455089466225,1.0,0.0,5.310358215633014,5.310358215633014,5.310358215633014,5.310358215633014,5.310358215633014,5.310358215633014,5.310358215633014,5.310358215633014
22.44851405,1.0,1.2459455089466225,1.0,0.0,0.35150082131972343,0.8730012392017849,0.780743189232344,0.5122238637042559,1.0829288830861803,4.110966999685811,5.310358215633014,5.310358215633014
22.449338824999998,1.0,1.2459455089466225,1.0,0.0,2.2612467730849555,3.391825563951756,3.237412319808588,2.2599519138406023,2.2580096249950627,2.1519930632529034,2.261894202711332,2.2554199065735
22.4501633,1.0,1.5616727428333412,1.0,0.0,2.261894202711332,2.261894202711332,2.261894202711332,2.261732345304475,2.261732345304475,2.261732345304475,2.261732345304475,2.261732345304475
22.4509786,1.0,1.5616727428333412,1.0,0.0,2.261732345304475,2.261894202711332,2.2620560601183635,2.261894202711332,2.261894202711332,2.261894202711332,2.261894202711332,2.2620560601183635
22.451793900000002,1.0,1.5616727428333412,1.0,0.0,2.261894202711332,2.26221791752557,2.261894202711332,2.2620560601183635,2.2620560601183635,2.2620560601183635,2.2620560601183635,2.2620560601183635
22.4526089,1.0,1.0917783336536537,1.0,0.0,2.2623797749329517,2.2620560601183635,2.2620560601183635,2.26221791752557,2.26221791752557,2.26221791752557,2.26221791752557,2.26221791752557
22.4537337,1.0,1.0917783336536537,1.0,0.0,2.2620560601183635,2.2623797749329517,2.26221791752557,2.2623797749329517,2.2623797749329517,2.26221791752557,2.2623797749329517,2.26221791752557
22.4548582,1.0,1.4528642253772865,1.0,0.0,2.2623797749329517,2.2623797749329517,2.2620560601183635,2.26221791752557,2.26221791752557,2.26221791752557,2.2620560601183635,2.2623797749329517
22.455781233333333,1.0,1.4528642253772865,1.0,0.0,2.2623797749329517,2.26221791752557,2.2623797749329517,2.26221791752557,2.2623797749329517,2.2620560601183635,2.26221791752557,2.26221791752557
22.456704266666666,1.0,1.4528642253772865,1.0,0.0,2.2623797749329517,2.2625416323405085,2.2623797749329517,2.2623797749329517,2.2625416323405085,2.2623797749329517,2.2623797749329517,2.2625416323405085
22.4576269,1.0,1.8776765422718178,1.0,0.0,2.2620560601183635,2.2625416323405085,2.26221791752557,2.2623797749329517,2.2623797749329517,2.2625416323405085,2.2625416323405085,2.2623797749329517
22.458425366666667,1.0,1.8776765422718178,1.0,0.0,0.3581369174449162,-0.6049055184049329,-0.6566993724260968,-0.4883693437641014,0.2751047953480732,1.4147347057015813,2.1147658909299616,2.260275628650641
22.459223833333333,1.0,1.8776765422718178,1.0,0.0,5.310358215633014,5.310358215633014,5.310358215633014,1.8268220945173563,-0.3346063240113686,1.6052400377092433,-1.9389216266347613,-0.7840798810774984
22.460022,1.0,1.54945808218881,1.0,0.0,5.310358215633014,5.310358215633014,5.310358215633014,5.310358215633014,5.310358215633014,2.0955048791477293,-3.460049329502584,-5.296978735969328
22.461532849999998,1.0,1.54945808218881,1.0,0.0,5.310358215633014,5.310358215633014,5.310358215633014,5.310358215633014,5.310358215633014,5.310358215633014,5.310358215633014,5.310358215633014
22.463043,1.0,1.4005036907093178,1.0,0.0,5.310358215633014,5.310358215633014,5.310358215633014,5.310358215633014,5.310358215633014,5.310358215633014,5.310358215633014,5.310358215633014
22.464295433333334,1.0,1.4005036907093178,1.0,0.0,0.3571657814199487,1.0107409463935635,4.574049730509232,5.310358215633014,5.310358215633014,5.310358215633014,5.310358215633014,5.310358215633014
22.465547866666665,1.0,1.4005036907093178,1.0,0.0,0.3584606294537462,1.1664467913475267,1.0861660107795124,0.769736967675378,0.5161084093824728,0.2768852110551734,1.9132537384318877,4.10319771877421
22.4668001,1.0,1.525501783360685,1.0,0.0,2.261408630491287,2.261408630491287,2.2615704878977936,2.2615704878977936,2.2615704878977936,2.261408630491287,2.2615704878977936,2.2615704878977936
22.46765986666667,1.0,1.525501783360685,1.0,0.0,2.261732345304475,2.261894202711332,2.261732345304475,2.261732345304475,2.261732345304475,2.2615704878977936,2.261894202711332,2.261732345304475
22.468519633333333,1.0,1.525501783360685,1.0,0.0,2.2620560601183635,2.261894202711332,2.261894202711332,2.261894202711332,2.2620560601183635,2.26221791752557,2.261894202711332,2.2620560601183635
22.4693791,1.0,1.3636632518665444,1.0,0.0,2.2620560601183635,2.2620560601183635,2.2620560601183635,2.261894202711332,2.2620560601183635,2.26221791752557,2.261894202711332,2.2620560601183635
22.470120766666668,1.0,1.3636632518665444,1.0,0.0,2.26221791752557,2.26221791752557,2.2620560601183635,2.2620560601183635,2.2620560601183635,2.2620560601183635,2.26221791752557,2.26221791752557
22.470862433333334,1.0,1.3636632518665444,1.0,0.0,2.2620560601183635,2.261894202711332,2.2623797749329517,2.26221791752557,2.2620560601183635,2.26221791752557,2.2620560601183635,2.26221791752557
22.4716037,1.0,1.0540528850452553,1.0,0.0,2.2620560601183635,2.2623797749329517,2.26221791752557,2.2620560601183635,2.2623797749329517,2.2623797749329517,2.26221791752557,2.26221791752557
22.47266985,1.0,1.0540528850452553,1.0,0.0,2.2623797749329517,2.26221791752557,2.2625416323405085,2.2623797749329517,2.2625416323405085,2.26221791752557,2.2625416323405085,2.26221791752557
22.4737357,1.0,1.2903371410267006,1.0,0.0,2.2623797749329517,2.26221791752557,2.2623797749329517,2.26221791752557,2.2623797749329517,2.26221791752557,2.26221791752557,2.2625416323405085
22.4745275,1.0,1.2903371410267006,1.0,0.0,0.5758333045362493,1.6393918202601991,2.2118802722757107,2.2607612008670106,2.261894202711332,2.2623797749329517,2.2625416323405085,2.2625416323405085
22.4753193,1.0,1.2903371410267006,1.0,0.0,5.310358215633014,4.740442876380255,0.8425722650586669,-3.630484996597579,-5.296978735969328,-5.291313650883447,-5.296978735969328,-5.296978735969328
22.4761108,1.0,1.0973249034778725,1.0,0.0,5.310358215633014,5.310358215633014,5.310358215633014,5.310358215633014,-3.9550092816768148,-5.296978735969328,-5.296978735969328,-5.296978735969328
22.47720535,1.0,1.0973249034778725,1.0,0.0,5.310358215633014,5.310358215633014,5.310358215633014,5.310358215633014,5.310358215633014,-1.9521938237429435,-4.322103010641362,-5.296978735969328
22.4782996,1.0,1.3806195812122475,1.0,0.0,5.310358215633014,5.310358215633014,5.310358215633014,5.310358215633014,5.310358215633014,5.310358215633014,5.310358215633014,5.310358215633014
22.48004865,1.0,1.3806195812122475,1.0,0.0,5.310358215633014,5.310358215633014,5.310358215633014,5.310358215633014,5.310358215633014,5.310358215633014,5.310358215633014,5.310358215633014
22.4817975,1.0,1.69984870718881,1.0,0.0,0.3571657814199487,0.4656093187846144,0.37416066218818794,0.17297368761860912,3.0159899213805526,5.233797346208862,5.310358215633014,5.310358215633014
22.482345674999998,1.0,1.69984870718881,1.0,0.0,2.2612467730849555,5.310358215633014,5.310358215633014,1.6860065855639657,2.1006843106567374,3.1040408831255846,0.33094510960176,-0.052815298971535155
22.48289385,1.0,1.69984870718881,1.0,0.0,2.261408630491287,2.2615704878977936,2.261732345304475,2.2615704878977936,2.2615704878977936,2.2615704878977936,2.261732345304475,2.2615704878977936
22.483442025000002,1.0,1.69984870718881,1.0,0.0,2.2615704878977936,2.261732345304475,2.261894202711332,2.261732345304475,2.261894202711332,2.2615704878977936,2.261732345304475,2.261894202711332
22.4839899,1.0,1.5398603038684975,1.0,0.0,2.2620560601183635,2.261894202711332,2.261732345304475,2.261894202711332,2.2620560601183635,2.2620560601183635,2.2620560601183635,2.2620560601183635
22.485101550000003,1.0,1.5398603038684975,1.0,0.0,2.2620560601183635,2.261894202711332,2.26221791752557,2.2620560601183635,2.26221791752557,2.2620560601183635,2.2620560601183635,2.2620560601183635
22.4862128,1.0,1.2398076610462319,1.0,0.0,2.261894202711332,2.26221791752557,2.2620560601183635,2.2620560601183635,2.2620560601183635,2.26221791752557,2.26221791752557,2.2620560601183635
22.48725455,1.0,1.2398076610462319,1.0,0.0,2.2620560601183635,2.2620560601183635,2.26221791752557,2.26221791752557,2.26221791752557,2.2620560601183635,2.2620560601183635,2.2620560601183635
22.488296,1.0,1.1720090465442787,1.0,0.0,0.34713070929520967,1.0478060503216082,1.8554707806820232,2.2584951972040868,2.260923058272817,2.2620560601183635,2.26221791752557,2.2625416323405085
22.489361449999997,1.0,1.1720090465442787,1.0,0.0,2.2623797749329517,2.2623797749329517,2.2623797749329517,2.2625416323405085,2.2623797749329517,2.2623797749329517,2.26221791752557,2.2623797749329517
22.4904265,1.0,1.3947797374622475,1.0,0.0,2.26221791752557,2.2623797749329517,2.2623797749329517,2.2623797749329517,2.2623797749329517,2.2623797749329517,2.2625416323405085,2.2625416323405085
22.49150965,1.0,1.3947797374622475,1.0,0.0,0.3587843414628301,-0.15883088833457637,0.5227445083463842,1.5201033927911034,2.1014935968453297,2.2601137712455337,2.2615704878977936,2.26221791752557
22.4925925,1.0,2.0376248912708412,1.0,0.0,5.310358215633014,5.310358215633014,5.310358215633014,-0.6314498686607007,-4.7448772100604835,-3.6712730470878805,-4.181610226821102,-5.256190130655118
22.494122,1.0,2.0376248912708412,1.0,0.0,5.310358215633014,5.310358215633014,5.310358215633014,5.310358215633014,3.543487423115912,-3.4419213299838933,-5.296978735969328,-5.296978735969328
22.4956515,1.0,2.0376248912708412,1.0,0.0,5.310358215633014,5.310358215633014,5.310358215633014,5.310358215633014,5.310358215633014,5.310358215633014,5.310358215633014,5.310358215633014
22.4971808,1.0,1.2884889202015053,1.0,0.0,5.310358215633014,5.310358215633014,5.310358215633014,5.310358215633014,5.310358215633014,5.310358215633014,5.310358215633014,5.310358215633014
22.49910195,1.0,1.2884889202015053,1.0,0.0,5.310358215633014,5.310358215633014,5.310358215633014,5.310358215633014,5.310358215633014,5.310358215633014,5.310358215633014,5.310358215633014
22.5010224,1.0,0.9455190257923256,1.0,0.0,0.35797506144059643,0.9550623723147461,0.779448339616291,0.5178888261656444,0.5818219802246024,3.7676625074331414,5.310358215633014,5.310358215633014
22.501438216666667,1.0,0.9455190257923256,1.0,0.0,2.261408630491287,3.8560378044361894,5.310358215633014,5.310358215633014,2.2550961917739496,2.2554199065735,3.827226801456463,2.2589807694146846
22.501854033333334,1.0,0.9455190257923256,1.0,0.0,2.261894202711332,2.261894202711332,2.261732345304475,2.261732345304475,2.261894202711332,2.261732345304475,2.261894202711332,2.2615704878977936
22.502269849999998,1.0,0.9455190257923256,1.0,0.0,2.261894202711332,2.261894202711332,2.2620560601183635,2.2620560601183635,2.261894202711332,2.261894202711332,2.261894202711332,2.261732345304475
22.502685666666665,1.0,0.9455190257923256,1.0,0.0,2.2620560601183635,2.2620560601183635,2.2620560601183635,2.2620560601183635,2.2620560601183635,2.2620560601183635,2.261894202711332,2.2620560601183635
22.50310148333333,1.0,0.9455190257923256,1.0,0.0,2.261894202711332,2.2620560601183635,2.261894202711332,2.2620560601183635,2.2620560601183635,2.2620560601183635,2.26221791752557,2.261894202711332
22.5035169,1.0,0.8017373638050209,1.0,0.0,2.2623797749329517,2.2620560601183635,2.26221791752557,2.26221791752557,2.26221791752557,2.26221791752557,2.26221791752557,2.26221791752557
22.5047141,1.0,0.8017373638050209,1.0,0.0,2.26221791752557,2.26221791752557,2.2620560601183635,2.26221791752557,2.2620560601183635,2.2623797749329517,2.26221791752557,2.26221791752557
22.5059109,1.0,1.2178178386585365,1.0,0.0,2.2627034897482408,2.26221791752557,2.2623797749329517,2.2623797749329517,2.26221791752557,2.2625416323405085,2.2623797749329517,2.2623797749329517
22.506680566666667,1.0,1.2178178386585365,1.0,0.0,2.2625416323405085,2.2623797749329517,2.2623797749329517,2.26221791752557,2.2623797749329517,2.2625416323405085,2.2625416323405085,2.2623797749329517
22.507450233333334,1.0,1.2178178386585365,1.0,0.0,2.2623797749329517,2.2623797749329517,2.2623797749329517,2.2623797749329517,2.2623797749329517,2.2623797749329517,2.2623797749329517,2.2625416323405085
22.5082194,1.0,2.0151639537708412,1.0,0.0,0.35700392541600945,-0.6112178943958796,-0.6898798099257023,-0.517341532158076,0.12943444217581734,1.3352631198587421,2.0710644389931607,2.2389104526855452
22.50941785,1.0,2.0151639537708412,1.0,0.0,5.310358215633014,5.310358215633014,5.310358215633014,1.431567794935543,0.7527420675361854,1.8193766740233515,-2.438571667676959,-0.7746922450982658
22.510616,1.0,2.50081306265756,1.0,0.0,5.310358215633014,5.310358215633014,5.310358215633014,5.310358215633014,5.310358215633014,0.9977924397339971,-3.7353685772242975,-5.296978735969328
22.5124295,1.0,2.50081306265756,1.0,0.0,5.310358215633014,5.310358215633014,5.310358215633014,5.310358215633014,5.310358215633014,5.310358215633014,5.310358215633014,5.310358215633014
22.5142426,1.0,2.6179624156849037,1.0,0.0,5.310358215633014,5.310358215633014,5.310358215633014,5.310358215633014,5.310358215633014,5.310358215633014,5.310358215633014,5.310358215633014
22.514963725,1.0,2.6179624156849037,1.0,0.0,0.35587093339020837,0.28352130602611725,2.7549127210015434,5.295466877568219,5.310358215633014,5.310358215633014,5.310358215633014,5.310358215633014
22.51568485,1.0,2.6179624156849037,1.0,0.0,0.3568420694121335,1.1497755786618253,1.099600091161327,0.7878648622216914,0.541519813399882,0.2982502000978728,1.3038629494225311,3.683819349529863
22.516405974999998,1.0,2.6179624156849037,1.0,0.0,2.2612467730849555,2.261408630491287,2.2612467730849555,2.261408630491287,2.2612467730849555,2.261408630491287,2.261408630491287,2.261408630491287
22.5171267,1.0,1.4734368877308022,1.0,0.0,2.261732345304475,2.261732345304475,2.261732345304475,2.261732345304475,2.2615704878977936,2.261732345304475,2.261732345304475,2.261732345304475
22.5179014,1.0,1.4734368877308022,1.0,0.0,2.26221791752557,2.2620560601183635,2.261894202711332,2.2620560601183635,2.261732345304475,2.261894202711332,2.261732345304475,2.261732345304475
22.5186761,1.0,1.4734368877308022,1.0,0.0,2.2620560601183635,2.2620560601183635,2.2620560601183635,2.2620560601183635,2.2620560601183635,2.2620560601183635,2.26221791752557,2.2620560601183635
22.5194505,1.0,0.7991815166370522,1.0,0.0,2.2620560601183635,2.26221791752557,2.2620560601183635,2.26221791752557,2.26221791752557,2.261894202711332,2.2620560601183635,2.2620560601183635
22.5208376,1.0,0.7991815166370522,1.0,0.0,2.2620560601183635,2.2620560601183635,2.2620560601183635,2.26221791752557,2.2620560601183635,2.2620560601183635,2.2620560601183635,2.2620560601183635
22.5222244,1.0,1.161427076329435,1.0,0.0,2.261894202711332,2.26221791752557,2.2620560601183635,2.2623797749329517,2.26221791752557,2.2620560601183635,2.2623797749329517,2.2623797749329517
22.52294763333333,1.0,1.161427076329435,1.0,0.0,2.26221791752557,2.2623797749329517,2.2623797749329517,2.26221791752557,2.26221791752557,2.2623797749329517,2.2623797749329517,2.2623797749329517
22.523670866666667,1.0,1.161427076329435,1.0,0.0,2.2625416323405085,2.2623797749329517,2.2625416323405085,2.2625416323405085,2.2625416323405085,2.2625416323405085,2.26221791752557,2.2625416323405085
22.5243938,1.0,1.7523847179309975,1.0,0.0,0.5581909902751576,1.6798560255868307,2.235673305076606,2.2607612008670106,2.261894202711332,2.2623797749329517,2.2625416323405085,2.2625416323405085
22.52564,1.0,1.7523847179309975,1.0,0.0,5.310358215633014,5.310358215633014,1.7680680239312068,-3.879098049346972,-5.265254263706119,-5.296978735969328,-5.296978735969328,-5.296978735969328
22.5268857,1.0,2.0418153362171303,1.0,0.0,5.310358215633014,5.310358215633014,5.310358215633014,5.310358215633014,-3.0265964331314628,-5.296978735969328,-5.296978735969328,-5.296978735969328
22.527927966666667,1.0,2.0418153362171303,1.0,0.0,5.310358215633014,5.310358215633014,5.310358215633014,5.310358215633014,5.310358215633014,3.390368834220329,-3.300458258486709,-5.296978735969328
22.528970233333336,1.0,2.0418153362171303,1.0,0.0,5.310358215633014,5.310358215633014,5.310358215633014,5.310358215633014,5.310358215633014,5.310358215633014,5.310358215633014,5.310358215633014
22.5300121,1.0,1.883616025914396,1.0,0.0,5.310358215633014,5.310358215633014,5.310358215633014,5.310358215633014,5.310358215633014,5.310358215633014,5.310358215633014,5.310358215633014
22.530833133333335,1.0,1.883616025914396,1.0,0.0,0.35425237335873083,0.5028362118206715,0.37691221437905226,0.17394482324739874,3.412867217811357,5.310358215633014,5.310358215633014,5.310358215633014
22.531654166666666,1.0,1.883616025914396,1.0,0.0,2.260599343461379,5.310358215633014,5.310358215633014,4.321061555386657,2.2693396436161164,3.5718127677713336,0.24483772940159906,0.2168366487723024
22.5324749,1.0,1.6659970836536537,1.0,0.0,2.261408630491287,2.2615704878977936,2.2615704878977936,2.2615704878977936,2.2615704878977936,2.261732345304475,2.261732345304475,2.261732345304475
22.53359855,1.0,1.6659970836536537,1.0,0.0,2.261894202711332,2.261732345304475,2.261732345304475,2.261894202711332,2.261894202711332,2.261894202711332,2.261894202711332,2.261732345304475
22.5347219,1.0,1.0497460918323647,1.0,0.0,2.2623797749329517,2.261894202711332,2.2620560601183635,2.261894202711332,2.2620560601183635,2.2620560601183635,2.261894202711332,2.2620560601183635
22.535438233333334,1.0,1.0497460918323647,1.0,0.0,2.26221791752557,2.2620560601183635,2.2620560601183635,2.2620560601183635,2.2620560601183635,2.261894202711332,2.2620560601183635,2.2620560601183635
22.536154566666667,1.0,1.0497460918323647,1.0,0.0,2.26221791752557,2.26221791752557,2.26221791752557,2.2620560601183635,2.26221791752557,2.2620560601183635,2.26221791752557,2.26221791752557
22.5368706,1.0,0.6476312236683022,1.0,0.0,2.261732345304475,2.2623797749329517,2.26221791752557,2.2620560601183635,2.2620560601183635,2.2620560601183635,2.26221791752557,2.26221791752557
22.53802035,1.0,0.6476312236683022,1.0,0.0,0.36542043770512245,1.1433013216229098,1.9249074465704286,2.259142626818567,2.2612467730849555,2.2620560601183635,2.26221791752557,2.26221791752557
22.5391695,1.0,0.7845464305774819,1.0,0.0,2.2623797749329517,2.26221791752557,2.26221791752557,2.26221791752557,2.2623797749329517,2.2623797749329517,2.2623797749329517,2.2623797749329517
22.54023375,1.0,0.7845464305774819,1.0,0.0,2.2627034897482408,2.2625416323405085,2.2625416323405085,2.2625416323405085,2.2627034897482408,2.2623797749329517,2.26221791752557,2.2623797749329517
22.5412977,1.0,1.5371251659290444,1.0,0.0,0.3490729813004412,-0.176149464106344,0.37658850235563024,1.4383657736668867,2.0522890040626733,2.259790056435845,2.2615704878977936,2.2623797749329517
22.542373650000002,1.0,1.5371251659290444,1.0,0.0,5.310358215633014,5.310358215633014,5.310358215633014,-0.3229527049339935,-4.899128678097075,-3.9038622634780165,-4.031567986753781,-5.296978735969328
22.5434494,1.0,2.0416379527942787,1.0,0.0,5.310358215633014,5.310358215633014,5.310358215633014,5.310358215633014,2.7063553348916902,-3.6963609407256044,-5.296978735969328,-5.296978735969328
22.54469075,1.0,2.0416379527942787,1.0,0.0,5.310358215633014,5.310358215633014,5.310358215633014,5.310358215633014,5.310358215633014,5.310358215633014,5.310358215633014,5.310358215633014
22.5459318,1.0,1.7540956096546303,1.0,0.0,5.310358215633014,5.310358215633014,5.310358215633014,5.310358215633014,5.310358215633014,5.310358215633014,5.310358215633014,5.310358215633014
22.546671633333336,1.0,1.7540956096546303,1.0,0.0,5.310358215633014,5.310358215633014,5.310358215633014,5.310358215633014,5.310358215633014,5.310358215633014,5.310358215633014,5.310358215633014
22.547411466666667,1.0,1.7540956096546303,1.0,0.0,0.35668021340832096,0.8776950706126324,0.7486956628822449,0.49862795415841443,0.5018650754327638,3.7046992027819363,5.310358215633014,5.310358215633014
22.548151,1.0,1.7379079418079506,1.0,0.0,2.261408630491287,3.367870455289439,5.310358215633014,2.2589807694146846,2.2554199065735,3.8505345784922995,2.2599519138406023,2.2549343343744366
22.549213350000002,1.0,1.7379079418079506,1.0,0.0,2.261732345304475,2.261732345304475,2.261732345304475,2.261732345304475,2.261894202711332,2.261894202711332,2.261894202711332,2.261732345304475
22.5502755,1.0,1.6439691142933022,1.0,0.0,2.261894202711332,2.261894202711332,2.26221791752557,2.2620560601183635,2.261894202711332,2.2620560601183635,2.261894202711332,2.261894202711332
22.5513949,1.0,1.6439691142933022,1.0,0.0,2.2620560601183635,2.261894202711332,2.2620560601183635,2.2623797749329517,2.261894202711332,2.261894202711332,2.2620560601183635,2.2620560601183635
22.552514,1.0,1.2106385784046303,1.0,0.0,2.261894202711332,2.2620560601183635,2.26221791752557,2.2620560601183635,2.2620560601183635,2.2620560601183635,2.2620560601183635,2.261894202711332
22.55355255,1.0,1.2106385784046303,1.0,0.0,2.26221791752557,2.26221791752557,2.26221791752557,2.2623797749329517,2.2620560601183635,2.26221791752557,2.26221791752557,2.26221791752557
22.5545908,1.0,1.260893400181974,1.0,0.0,2.2623797749329517,2.26221791752557,2.2623797749329517,2.2620560601183635,2.2623797749329517,2.2620560601183635,2.26221791752557,2.26221791752557
22.555814050000002,1.0,1.260893400181974,1.0,0.0,2.2620560601183635,2.2623797749329517,2.2623797749329517,2.26221791752557,2.26221791752557,2.26221791752557,2.26221791752557,2.26221791752557
22.557037,1.0,1.7833428935901772,1.0,0.0,2.2625416323405085,2.2623797749329517,2.2625416323405085,2.2625416323405085,2.2623797749329517,2.2623797749329517,2.2623797749329517,2.2623797749329517
22.55784476666667,1.0,1.7833428935901772,1.0,0.0,2.26221791752557,2.2623797749329517,2.2625416323405085,2.2625416323405085,2.2623797749329517,2.2623797749329517,2.2623797749329517,2.2625416323405085
22.558652533333333,1.0,1.7833428935901772,1.0,0.0,0.36396373364276086,-0.5951941707055759,-0.6646303062795331,-0.49047346919245416,0.2077727155142962,1.3739468412380134,2.0934007351455604,2.2549343343744366
22.55946,1.0,1.019297178258146,1.0,0.0,5.310358215633014,5.310358215633014,5.310358215633014,0.3042388714553927,0.7137347289038338,0.11826638352677472,-3.10024126944393,-0.7803571978430462
22.560752,1.0,1.019297178258146,1.0,0.0,5.310358215633014,5.310358215633014,5.310358215633014,5.310358215633014,5.310358215633014,0.6786119427096444,-3.793960979985175,-5.296978735969328
22.5620434,1.0,1.9297013835804115,1.0,0.0,5.310358215633014,5.310358215633014,5.310358215633014,5.310358215633014,5.310358215633014,5.310358215633014,5.310358215633014,5.310358215633014
22.562921166666666,1.0,1.9297013835804115,1.0,0.0,5.310358215633014,5.310358215633014,5.310358215633014,5.310358215633014,5.310358215633014,5.310358215633014,5.310358215633014,5.310358215633014
22.563798933333334,1.0,1.9297013835804115,1.0,0.0,0.34874926929894057,2.486552456395257,5.310358215633014,5.310358215633014,5.310358215633014,5.310358215633014,5.310358215633014,5.310358215633014
22.5646764,1.0,2.237640912999357,1.0,0.0,0.3582987734492995,1.1622385239571065,1.079691755435223,0.7614823017735699,0.5046166285385626,0.26215631769069864,2.1375877650850605,4.26084950634299
22.5654025,1.0,2.237640912999357,1.0,0.0,2.2612467730849555,2.261408630491287,2.2615704878977936,2.261408630491287,2.261408630491287,2.2612467730849555,2.261408630491287,2.261408630491287
22.5661286,1.0,2.237640912999357,1.0,0.0,2.261894202711332,2.261894202711332,2.261732345304475,2.261732345304475,2.261894202711332,2.261732345304475,2.261732345304475,2.261732345304475
22.5668543,1.0,2.220213468541349,1.0,0.0,2.261894202711332,2.261894202711332,2.261894202711332,2.261894202711332,2.2620560601183635,2.261732345304475,2.261894202711332,2.261732345304475
22.567997599999998,1.0,2.220213468541349,1.0,0.0,2.26221791752557,2.2620560601183635,2.261894202711332,2.261894202711332,2.2620560601183635,2.2620560601183635,2.261894202711332,2.2620560601183635
22.5691405,1.0,1.899881895055021,1.0,0.0,2.26221791752557,2.26221791752557,2.2620560601183635,2.26221791752557,2.26221791752557,2.26221791752557,2.2620560601183635,2.26221791752557
22.570476,1.0,1.899881895055021,1.0,0.0,2.2620560601183635,2.2620560601183635,2.26221791752557,2.26221791752557,2.26221791752557,2.2620560601183635,2.26221791752557,2.2620560601183635
22.5718111,1.0,1.6878305034534584,1.0,0.0,2.2623797749329517,2.26221791752557,2.26221791752557,2.26221791752557,2.26221791752557,2.2620560601183635,2.261894202711332,2.26221791752557
22.572529633333335,1.0,1.6878305034534584,1.0,0.0,2.2625416323405085,2.2623797749329517,2.26221791752557,2.26221791752557,2.26221791752557,2.2625416323405085,2.2623797749329517,2.26221791752557
22.573248166666666,1.0,1.6878305034534584,1.0,0.0,2.2623797749329517,2.2625416323405085,2.2625416323405085,2.2623797749329517,2.2623797749329517,2.2625416323405085,2.2623797749329517,2.2625416323405085
22.5739662,1.0,2.0013356761829506,1.0,0.0,0.7690895428905498,1.6759714614956285,2.233892873921278,2.2610849156787984,2.2620560601183635,2.2623797749329517,2.2623797749329517,2.2625416323405085
22.5751412,1.0,2.0013356761829506,1.0,0.0,5.310358215633014,5.310358215633014,0.8802847707351672,-2.7849444474405765,-5.296978735969328,-5.296978735969328,-5.296978735969328,-5.296978735969328
22.5763159,1.0,1.2435441570179115,1.0,0.0,5.310358215633014,5.310358215633014,5.310358215633014,5.310358215633014,-3.1386013384041807,-5.296978735969328,-5.296978735969328,-5.296978735969328
22.5775642,1.0,1.2435441570179115,1.0,0.0,5.310358215633014,5.310358215633014,5.310358215633014,5.310358215633014,5.310358215633014,0.98808106016356,-3.8243901929035435,-5.296978735969328
22.5788122,1.0,1.5757566051380287,1.0,0.0,5.310358215633014,5.310358215633014,5.310358215633014,5.310358215633014,5.310358215633014,5.310358215633014,5.310358215633014,5.310358215633014
22.5796163,1.0,1.5757566051380287,1.0,0.0,5.310358215633014,5.310358215633014,5.310358215633014,5.310358215633014,5.310358215633014,5.310358215633014,5.310358215633014,5.310358215633014
22.5804204,1.0,1.5757566051380287,1.0,0.0,0.3680101338287671,0.4994372344743106,0.4084741379142663,0.1962809432368623,3.0032031143528592,5.26762655788763,5.310358215633014,5.310358215633014
22.5812242,1.0,1.7338166789905678,1.0,0.0,2.2610849156787984,5.310358215633014,4.934676549537148,4.534717546902449,2.2232102874294872,2.2538013325827326,3.3057166842669865,1.9077505987563985
22.5823166,1.0,1.7338166789905678,1.0,0.0,2.2615704878977936,2.261408630491287,2.261408630491287,2.2615704878977936,2.261408630491287,2.2615704878977936,2.2615704878977936,2.261732345304475
22.5834087,1.0,1.8069272594349037,1.0,0.0,2.2620560601183635,2.261732345304475,2.261732345304475,2.261732345304475,2.261732345304475,2.2615704878977936,2.261732345304475,2.261732345304475
22.5845239,1.0,1.8069272594349037,1.0,0.0,2.26221791752557,2.261732345304475,2.261894202711332,2.261894202711332,2.261894202711332,2.261732345304475,2.2620560601183635,2.26221791752557
22.5856387,1.0,2.081900175084318,1.0,0.0,2.2620560601183635,2.2620560601183635,2.26221791752557,2.2620560601183635,2.2620560601183635,2.2620560601183635,2.2620560601183635,2.2620560601183635
22.586668,1.0,2.081900175084318,1.0,0.0,2.2620560601183635,2.26221791752557,2.26221791752557,2.261894202711332,2.26221791752557,2.2620560601183635,2.261894202711332,2.2620560601183635
22.587697,1.0,1.771208341588224,1.0,0.0,2.2620560601183635,2.2625416323405085,2.26221791752557,2.2623797749329517,2.2623797749329517,2.26221791752557,2.2623797749329517,2.26221791752557
22.5884528,1.0,1.771208341588224,1.0,0.0,0.4079885698409354,1.1018660806957659,1.8881658972378705,2.2586570546074447,2.2612467730849555,2.261894202711332,2.2623797749329517,2.26221791752557
22.5892086,1.0,1.771208341588224,1.0,0.0,2.2625416323405085,2.2625416323405085,2.2623797749329517,2.26221791752557,2.26221791752557,2.2623797749329517,2.26221791752557,2.26221791752557
22.5899641,1.0,1.8258672313587319,1.0,0.0,2.2627034897482408,2.2625416323405085,2.2623797749329517,2.2625416323405085,2.2623797749329517,2.2623797749329517,2.2623797749329517,2.2623797749329517
22.5911285,1.0,1.8258672313587319,1.0,0.0,0.40167618494189955,-0.17210306793134836,0.46577117483322295,1.4877320545398138,2.0820707294593284,2.2599519138406023,2.261732345304475,2.26221791752557
22.5922926,1.0,2.1102033214466225,1.0,0.0,5.310358215633014,5.310358215633014,5.310358215633014,0.16779429763032583,-4.5600347037706515,-4.515685495099494,-3.2012399491685706,-5.18513383064864
22.5933633,1.0,2.1102033214466225,1.0,0.0,5.310358215633014,5.310358215633014,5.310358215633014,5.310358215633014,5.310358215633014,-2.6912295184748602,-4.54514372672365,-5.296978735969328
22.5944337,1.0,2.181681211461271,1.0,0.0,5.310358215633014,5.310358215633014,5.310358215633014,5.310358215633014,5.310358215633014,5.310358215633014,5.310358215633014,5.310358215633014
22.59554605,1.0,2.181681211461271,1.0,0.0,5.310358215633014,5.310358215633014,5.310358215633014,5.310358215633014,5.310358215633014,5.310358215633014,5.310358215633014,5.310358215633014
22.5966581,1.0,1.6691651897327553,1.0,0.0,5.310358215633014,5.310358215633014,5.310358215633014,5.310358215633014,5.310358215633014,5.310358215633014,5.310358215633014,5.310358215633014
22.597432233333333,1.0,1.6691651897327553,1.0,0.0,0.4259545889541712,1.065772107017148,0.8344794533356464,0.5405486769072392,0.6970635441844609,3.806185063051665,5.310358215633014,5.310358215633014
22.598206366666666,1.0,1.6691651897327553,1.0,0.0,2.2610849156787984,3.5695467399157597,4.237056046524291,2.2547724769750976,2.160733357173832,2.2601137712455337,2.257200337983519,2.581077361689874
22.5989802,1.0,0.926695402135099,1.0,0.0,2.261732345304475,2.261732345304475,2.261894202711332,2.261732345304475,2.261732345304475,2.261732345304475,2.2615704878977936,2.261732345304475
22.600062649999998,1.0,0.926695402135099,1.0,0.0,2.26221791752557,2.261894202711332,2.261894202711332,2.2620560601183635,2.261894202711332,2.261894202711332,2.261894202711332,2.261894202711332
22.6011448,1.0,1.2005677776233803,1.0,0.0,2.2620560601183635,2.2620560601183635,2.26221791752557,2.2620560601183635,2.2620560601183635,2.2620560601183635,2.261894202711332,2.26221791752557
22.60239275,1.0,1.2005677776233803,1.0,0.0,2.26221791752557,2.2620560601183635,2.261894202711332,2.2620560601183635,2.26221791752557,2.261894202711332,2.2620560601183635,2.2620560601183635
22.6036404,1.0,1.219765241612638,1.0,0.0,2.2620560601183635,2.26221791752557,2.2620560601183635,2.26221791752557,2.26221791752557,2.26221791752557,2.2620560601183635,2.26221791752557
22.6048326,1.0,1.219765241612638,1.0,0.0,2.26221791752557,2.2627034897482408,2.2623797749329517,2.2623797749329517,2.2623797749329517,2.26221791752557,2.26221791752557,2.26221791752557
22.6060244,1.0,1.6949506358997475,1.0,0.0,2.2623797749329517,2.2623797749329517,2.26221791752557,2.2623797749329517,2.26221791752557,2.26221791752557,2.26221791752557,2.2623797749329517
22.606759466666666,1.0,1.6949506358997475,1.0,0.0,2.2625416323405085,2.2625416323405085,2.2623797749329517,2.26221791752557,2.2623797749329517,2.26221791752557,2.2623797749329517,2.2623797749329517
22.607494533333334,1.0,1.6949506358997475,1.0,0.0,2.2623797749329517,2.2623797749329517,2.2625416323405085,2.2625416323405085,2.2623797749329517,2.2623797749329517,2.2623797749329517,2.2625416323405085
22.6082293,1.0,2.4475675182239662,1.0,0.0,0.4337236785569689,-0.6311261570731822,-0.6992674458822817,-0.5241394757452847,0.048020918448333415,1.2970649749712277,2.048242574408128,1.8888133253513166
22.609328400000003,1.0,2.4475675182239662,1.0,0.0,5.310358215633014,5.310358215633014,5.310358215633014,4.597519560730897,2.403033929166239,-2.5329339221784757,-0.47169819605515134,-2.8079280803464415
22.6104269,1.0,2.5915074901477944,1.0,0.0,5.310358215633014,5.310358215633014,5.310358215633014,5.310358215633014,5.310358215633014,0.30051618384509604,-3.557325504468523,-5.296978735969328
22.61182655,1.0,2.5915074901477944,1.0,0.0,5.310358215633014,5.310358215633014,5.310358215633014,5.310358215633014,5.310358215633014,5.310358215633014,5.310358215633014,5.310358215633014
22.6132259,1.0,2.335375364293302,1.0,0.0,5.310358215633014,5.310358215633014,5.310358215633014,5.310358215633014,5.310358215633014,5.310358215633014,5.310358215633014,5.310358215633014
22.614061233333334,1.0,2.335375364293302,1.0,0.0,0.4287061415040081,2.528797311845454,5.310358215633014,5.310358215633014,5.310358215633014,5.310358215633014,5.310358215633014,5.310358215633014
22.614896566666665,1.0,2.335375364293302,1.0,0.0,0.43550409494626596,1.1938005312189455,1.1149764491291247,0.7880267184279861,0.5261434859120313,0.2781800588466149,2.0634571504374972,4.180890557402732
22.6157316,1.0,2.0456700878040444,1.0,0.0,2.2615704878977936,2.261408630491287,2.261408630491287,2.261408630491287,2.261408630491287,2.2612467730849555,2.261408630491287,2.2615704878977936
22.616455433333332,1.0,2.0456700878040444,1.0,0.0,2.261894202711332,2.261408630491287,2.261732345304475,2.2615704878977936,2.2615704878977936,2.261732345304475,2.261732345304475,2.261732345304475
22.617179266666668,1.0,2.0456700878040444,1.0,0.0,2.261894202711332,2.261894202711332,2.261894202711332,2.261894202711332,2.2620560601183635,2.261894202711332,2.261894202711332,2.2620560601183635
22.6179028,1.0,1.5173783855335365,1.0,0.0,2.261894202711332,2.26221791752557,2.261894202711332,2.261894202711332,2.2620560601183635,2.261894202711332,2.261894202711332,2.2620560601183635
22.61897685,1.0,1.5173783855335365,1.0,0.0,2.2620560601183635,2.2620560601183635,2.26221791752557,2.26221791752557,2.2620560601183635,2.26221791752557,2.26221791752557,2.2620560601183635
22.6200506,1.0,1.0162683086292397,1.0,0.0,2.2625416323405085,2.2620560601183635,2.26221791752557,2.26221791752557,2.26221791752557,2.26221791752557,2.26221791752557,2.2620560601183635
22.621243800000002,1.0,1.0162683086292397,1.0,0.0,2.26221791752557,2.26221791752557,2.2620560601183635,2.26221791752557,2.2623797749329517,2.26221791752557,2.26221791752557,2.26221791752557
22.6224367,1.0,1.056374128331388,1.0,0.0,2.2623797749329517,2.2623797749329517,2.2623797749329517,2.26221791752557,2.2623797749329517,2.2623797749329517,2.2623797749329517,2.2623797749329517
22.6235084,1.0,1.056374128331388,1.0,0.0,2.2625416323405085,2.2623797749329517,2.26221791752557,2.2623797749329517,2.2623797749329517,2.2625416323405085,2.2623797749329517,2.2623797749329517
22.6245796,1.0,1.216795499791349,1.0,0.0,0.47645367419607804,1.5652614184594569,2.1642942178014324,2.260599343461379,2.261894202711332,2.2623797749329517,2.2623797749329517,2.2625416323405085
22.625441666666667,1.0,1.216795499791349,1.0,0.0,5.310358215633014,5.310358215633014,1.4409554799090396,-4.130301264671051,-4.7626816706287665,-5.296978735969328,-5.296978735969328,-5.296978735969328
22.626303733333334,1.0,1.216795499791349,1.0,0.0,5.310358215633014,5.310358215633014,5.310358215633014,5.310358215633014,-2.7616371038824825,-5.296978735969328,-5.296978735969328,-5.296978735969328
22.6271655,1.0,1.249308164586271,1.0,0.0,5.310358215633014,5.310358215633014,5.310358215633014,5.310358215633014,5.310358215633014,2.5160105534686417,-3.675643196002685,-5.296978735969328
22.628877199999998,1.0,1.249308164586271,1.0,0.0,5.310358215633014,5.310358215633014,5.310358215633014,5.310358215633014,5.310358215633014,5.310358215633014,5.310358215633014,5.310358215633014
22.6305882,1.0,1.5953069286243569,1.0,0.0,5.310358215633014,5.310358215633014,5.310358215633014,5.310358215633014,5.310358215633014,5.310358215633014,5.310358215633014,5.310358215633014
22.6314003,1.0,1.5953069286243569,1.0,0.0,0.43663708719828265,0.5193455308129737,0.40685557767215264,0.1870551544224152,3.3635002671146017,5.310358215633014,5.310358215633014,5.310358215633014
22.6322124,1.0,1.5953069286243569,1.0,0.0,2.2612467730849555,5.310358215633014,5.310358215633014,4.519826354574627,2.2512116142338114,3.413352794487188,2.227418578987772,2.249593040288413
22.6330242,1.0,2.351347501744474,1.0,0.0,2.2615704878977936,2.2615704878977936,2.261408630491287,2.2615704878977936,2.2615704878977936,2.2615704878977936,2.2615704878977936,2.2615704878977936
22.633826666666668,1.0,2.351347501744474,1.0,0.0,2.2620560601183635,2.261894202711332,2.261894202711332,2.2615704878977936,2.261732345304475,2.261732345304475,2.261732345304475,2.261732345304475
22.634629133333334,1.0,2.351347501744474,1.0,0.0,2.261894202711332,2.261732345304475,2.261894202711332,2.2615704878977936,2.261894202711332,2.261894202711332,2.261894202711332,2.261894202711332
22.6354312,1.0,2.496073301305021,1.0,0.0,2.261732345304475,2.261894202711332,2.2620560601183635,2.26221791752557,2.261894202711332,2.2620560601183635,2.2620560601183635,2.2620560601183635
22.6366625,1.0,2.496073301305021,1.0,0.0,2.26221791752557,2.26221791752557,2.2620560601183635,2.2623797749329517,2.2620560601183635,2.26221791752557,2.26221791752557,2.2620560601183635
22.6378935,1.0,1.7195764140979897,1.0,0.0,2.2620560601183635,2.2623797749329517,2.26221791752557,2.26221791752557,2.2623797749329517,2.26221791752557,2.2620560601183635,2.2623797749329517
22.638600666666665,1.0,1.7195764140979897,1.0,0.0,0.43955049586164496,0.9524726714812985,1.8222900993964233,2.2581714823978962,2.2607612008670106,2.261894202711332,2.26221791752557,2.26221791752557
22.639307833333334,1.0,1.7195764140979897,1.0,0.0,2.26221791752557,2.26221791752557,2.2623797749329517,2.2623797749329517,2.2625416323405085,2.2625416323405085,2.2623797749329517,2.26221791752557
22.6400147,1.0,0.7610230998890053,1.0,0.0,2.2623797749329517,2.2625416323405085,2.2625416323405085,2.2623797749329517,2.2623797749329517,2.2625416323405085,2.2623797749329517,2.2623797749329517
22.64120425,1.0,0.7610230998890053,1.0,0.0,0.4351803828748732,-0.13730405997580575,0.41009269816301996,1.4576267146224358,2.062647864442198,2.259790056435845,2.261732345304475,2.2620560601183635
22.6423934,1.0,0.33123451041146623,1.0,0.0,5.310358215633014,5.310358215633014,5.310358215633014,0.5070444695315545,-3.3095222503882473,-5.296978735969328,-3.2248710585910216,-3.9323492080074818
22.643728799999998,1.0,0.33123451041146623,1.0,0.0,5.310358215633014,5.310358215633014,5.310358215633014,5.310358215633014,5.310358215633014,-2.282542216256677,-4.050990920904246,-5.296978735969328
22.6450637,1.0,0.6418881969349037,1.0,0.0,5.310358215633014,5.310358215633014,5.310358215633014,5.310358215633014,5.310358215633014,5.310358215633014,5.310358215633014,5.310358215633014
22.64581976666667,1.0,0.6418881969349037,1.0,0.0,5.310358215633014,5.310358215633014,5.310358215633014,5.310358215633014,5.310358215633014,5.310358215633014,5.310358215633014,5.310358215633014
22.646575833333333,1.0,0.6418881969349037,1.0,0.0,5.310358215633014,5.310358215633014,5.310358215633014,5.310358215633014,5.310358215633014,5.310358215633014,5.310358215633014,5.310358215633014
22.6473316,1.0,1.9249997692005287,1.0,0.0,0.4327525423480878,0.9031065041104557,0.8063164703125585,0.5484796250087813,1.043597784974804,4.077785700340822,5.310358215633014,5.310358215633014
22.648734349999998,1.0,1.9249997692005287,1.0,0.0,2.2610849156787984,4.411703426980221,5.219391609986914,2.253315760388907,2.2601137712455337,2.260599343461379,2.257362195385478,3.7492105323017784
22.6501368,1.0,2.006449277867521,1.0,0.0,2.261894202711332,2.261732345304475,2.2615704878977936,2.261732345304475,2.261732345304475,2.2615704878977936,2.261732345304475,2.261732345304475
22.650960533333333,1.0,2.006449277867521,1.0,0.0,2.261894202711332,2.261894202711332,2.2620560601183635,2.2620560601183635,2.26221791752557,2.261894202711332,2.2620560601183635,2.261894202711332
22.651784266666667,1.0,2.006449277867521,1.0,0.0,2.2620560601183635,2.261894202711332,2.261894202711332,2.2620560601183635,2.26221791752557,2.26221791752557,2.2620560601183635,2.2620560601183635
22.6526077,1.0,1.6864934520618569,1.0,0.0,2.261894202711332,2.26221791752557,2.2620560601183635,2.261894202711332,2.2620560601183635,2.2620560601183635,2.261894202711332,2.26221791752557
22.653636433333332,1.0,1.6864934520618569,1.0,0.0,2.2625416323405085,2.26221791752557,2.26221791752557,2.26221791752557,2.26221791752557,2.2623797749329517,2.2623797749329517,2.26221791752557
22.654665166666668,1.0,1.6864934520618569,1.0,0.0,2.26221791752557,2.26221791752557,2.26221791752557,2.26221791752557,2.26221791752557,2.26221791752557,2.2623797749329517,2.2623797749329517
22.6556935,1.0,1.9451814250843178,1.0,0.0,2.26221791752557,2.26221791752557,2.2623797749329517,2.26221791752557,2.2625416323405085,2.26221791752557,2.26221791752557,2.2623797749329517
22.656393400000002,1.0,1.9451814250843178,1.0,0.0,2.2625416323405085,2.2623797749329517,2.2625416323405085,2.2625416323405085,2.2625416323405085,2.2625416323405085,2.2623797749329517,2.2625416323405085
22.6570933,1.0,1.9451814250843178,1.0,0.0,2.2623797749329517,2.2623797749329517,2.2625416323405085,2.2627034897482408,2.2625416323405085,2.2625416323405085,2.2623797749329517,2.26221791752557
22.6577929,1.0,2.5731759624378334,1.0,0.0,0.432266974244563,-0.5979457192230702,-0.705256110196718,-0.5309374193117999,-0.11626279858597087,1.209500608214039,1.9948297124313579,1.3512869199207476
22.6591425,1.0,2.5731759624378334,1.0,0.0,5.310358215633014,5.310358215633014,5.310358215633014,4.354081083497272,1.8150065360543084,-3.1042876898490457,-1.3957330326024233,-3.3775022049133634
22.6604918,1.0,2.4917245464222084,1.0,0.0,5.310358215633014,5.310358215633014,5.310358215633014,5.310358215633014,5.310358215633014,0.15873036527949017,-3.6050733991920625,-5.296978735969328
22.6617581,1.0,2.4917245464222084,1.0,0.0,5.310358215633014,5.310358215633014,5.310358215633014,5.310358215633014,5.310358215633014,5.310358215633014,5.310358215633014,5.310358215633014
22.6630241,1.0,2.2019010143177162,1.0,0.0,5.310358215633014,5.310358215633014,5.310358215633014,5.310358215633014,5.310358215633014,5.310358215633014,5.310358215633014,5.310358215633014
22.664033566666667,1.0,2.2019010143177162,1.0,0.0,0.44553916929470017,0.5779374338202435,4.355052246275909,5.310358215633014,5.310358215633014,5.310358215633014,5.310358215633014,5.310358215633014
22.665043033333333,1.0,2.2019010143177162,1.0,0.0,0.4465103055359208,1.2464038861908857,1.1657993655902819,0.8294619101821673,0.5638559534720601,0.3035914475208794,1.6316226938330047,3.9099370632331176
22.6660521,1.0,1.8777165965931069,1.0,0.0,2.2615704878977936,2.2612467730849555,2.2615704878977936,2.261408630491287,2.261408630491287,2.261408630491287,2.2612467730849555,2.2612467730849555
22.666785133333335,1.0,1.8777165965931069,1.0,0.0,2.261894202711332,2.261732345304475,2.261732345304475,2.2615704878977936,2.261732345304475,2.2615704878977936,2.2615704878977936,2.2615704878977936
22.667518166666667,1.0,1.8777165965931069,1.0,0.0,2.261732345304475,2.2620560601183635,2.2620560601183635,2.2620560601183635,2.261732345304475,2.261732345304475,2.261732345304475,2.261894202711332
22.6682507,1.0,1.2352243022815834,1.0,0.0,2.2620560601183635,2.26221791752557,2.26221791752557,2.2620560601183635,2.2620560601183635,2.2620560601183635,2.2620560601183635,2.2620560601183635
22.669610900000002,1.0,1.2352243022815834,1.0,0.0,2.2620560601183635,2.26221791752557,2.26221791752557,2.2620560601183635,2.26221791752557,2.261894202711332,2.2620560601183635,2.26221791752557
22.6709708,1.0,1.1559186534778725,1.0,0.0,2.2623797749329517,2.26221791752557,2.26221791752557,2.26221791752557,2.26221791752557,2.2623797749329517,2.26221791752557,2.26221791752557
22.67176333333333,1.0,1.1559186534778725,1.0,0.0,2.2620560601183635,2.26221791752557,2.26221791752557,2.26221791752557,2.26221791752557,2.2623797749329517,2.26221791752557,2.2620560601183635
22.672555866666666,1.0,1.1559186534778725,1.0,0.0,2.2623797749329517,2.26221791752557,2.2623797749329517,2.2623797749329517,2.2623797749329517,2.26221791752557,2.26221791752557,2.26221791752557
22.673348,1.0,1.5867124156849037,1.0,0.0,2.26221791752557,2.2623797749329517,2.2623797749329517,2.2625416323405085,2.2625416323405085,2.2623797749329517,2.2623797749329517,2.2625416323405085
22.67479125,1.0,1.5867124156849037,1.0,0.0,0.43388553459201995,1.5529603064980715,2.159438498784094,2.260437486055922,2.261894202711332,2.2623797749329517,2.2623797749329517,2.2625416323405085
22.6762341,1.0,2.145903165806974,1.0,0.0,5.310358215633014,5.310358215633014,1.029030713160378,-4.728043904509739,-4.516656645474937,-5.296978735969328,-5.296978735969328,-5.296978735969328
22.677072,1.0,2.145903165806974,1.0,0.0,5.310358215633014,5.310358215633014,5.310358215633014,5.310358215633014,-2.8346344174521905,-5.296978735969328,-5.296978735969328,-5.296978735969328
22.6779099,1.0,2.145903165806974,1.0,0.0,5.310358215633014,5.310358215633014,5.310358215633014,5.310358215633014,5.310358215633014,2.89524367094139,-3.630646853919314,-5.296978735969328
22.6787467,1.0,2.4487882213489662,1.0,0.0,5.310358215633014,5.310358215633014,5.310358215633014,5.310358215633014,5.310358215633014,5.310358215633014,5.310358215633014,5.310358215633014
22.6799804,1.0,2.4487882213489662,1.0,0.0,5.310358215633014,5.310358215633014,5.310358215633014,5.310358215633014,5.310358215633014,5.310358215633014,5.310358215633014,5.310358215633014
22.6812141,1.0,2.4487882213489662,1.0,0.0,0.44149276831616313,0.5700064850477264,0.4474814417796121,0.22185418332869866,3.1152091164434688,5.300160885983341,5.310358215633014,5.310358215633014
22.6824474,1.0,1.8944154338733803,1.0,0.0,2.260599343461379,5.310358215633014,5.310358215633014,2.1427671979808274,2.343794073238989,2.583181512723829,2.2563910509763443,5.310358215633014
22.68330986666667,1.0,1.8944154338733803,1.0,0.0,2.261408630491287,2.261408630491287,2.261408630491287,2.261408630491287,2.261408630491287,2.2612467730849555,2.2610849156787984,2.261408630491287
22.684172333333333,1.0,1.8944154338733803,1.0,0.0,2.261732345304475,2.261732345304475,2.261732345304475,2.261732345304475,2.261894202711332,2.2615704878977936,2.2615704878977936,2.261732345304475
22.6850343,1.0,1.5013280467884194,1.0,0.0,2.261894202711332,2.261894202711332,2.261732345304475,2.2620560601183635,2.261894202711332,2.2620560601183635,2.261894202711332,2.2615704878977936
22.686115333333333,1.0,1.5013280467884194,1.0,0.0,2.2620560601183635,2.2620560601183635,2.261894202711332,2.2620560601183635,2.261894202711332,2.261894202711332,2.261894202711332,2.261894202711332
22.68719636666667,1.0,1.5013280467884194,1.0,0.0,2.2623797749329517,2.26221791752557,2.26221791752557,2.2620560601183635,2.261894202711332,2.26221791752557,2.26221791752557,2.26221791752557
22.688277,1.0,1.3947606639759194,1.0,0.0,2.2620560601183635,2.2623797749329517,2.2623797749329517,2.2620560601183635,2.2623797749329517,2.2620560601183635,2.26221791752557,2.26221791752557
22.68898443333333,1.0,1.3947606639759194,1.0,0.0,0.4418164803928724,0.7996803655147646,1.7256615166531375,2.2539631899810235,2.260437486055922,2.2620560601183635,2.26221791752557,2.26221791752557
22.689691866666667,1.0,1.3947606639759194,1.0,0.0,2.2625416323405085,2.26221791752557,2.2623797749329517,2.2623797749329517,2.2625416323405085,2.2623797749329517,2.2623797749329517,2.2623797749329517
22.690399,1.0,2.2540631847278725,1.0,0.0,2.2625416323405085,2.2623797749329517,2.26221791752557,2.26221791752557,2.2623797749329517,2.2625416323405085,2.2625416323405085,2.2623797749329517
22.691949899999997,1.0,2.2540631847278725,1.0,0.0,0.43485667080375223,-0.15834532078415883,0.26053775800964696,1.3796118219429867,2.0147381407571516,2.2594663416268563,2.261408630491287,2.26221791752557
22.6935005,1.0,2.1957059459583412,1.0,0.0,5.310358215633014,5.310358215633014,5.310358215633014,0.8985745285383429,-4.069280853129514,-4.441554373237488,-3.5280293457229663,-5.296978735969328
22.694373766666665,1.0,2.1957059459583412,1.0,0.0,5.310358215633014,5.310358215633014,5.310358215633014,5.310358215633014,5.310358215633014,-2.8627974675039836,-4.742934905443963,-5.296978735969328
22.695247033333334,1.0,2.1957059459583412,1.0,0.0,5.310358215633014,5.310358215633014,5.310358215633014,5.310358215633014,5.310358215633014,5.310358215633014,5.310358215633014,5.310358215633014
22.6961199,1.0,1.4593148784534584,1.0,0.0,5.310358215633014,5.310358215633014,5.310358215633014,5.310358215633014,5.310358215633014,5.310358215633014,5.310358215633014,5.310358215633014
22.697090333333332,1.0,1.4593148784534584,1.0,0.0,5.310358215633014,5.310358215633014,5.310358215633014,5.310358215633014,5.310358215633014,5.310358215633014,5.310358215633014,5.310358215633014
22.698060766666668,1.0,1.4593148784534584,1.0,0.0,0.43420924666232574,0.9783696809544778,0.8909672839955706,0.6062622523689072,0.44537731325473684,3.624578858990881,5.310358215633014,5.310358215633014
22.6990307,1.0,1.5168672160999428,1.0,0.0,2.2612467730849555,3.8217235771314013,4.4680309232159905,2.2538013325827326,2.6297965594557406,2.2601137712455337,2.257362195385478,2.1464899154809416
22.6998426,1.0,1.5168672160999428,1.0,0.0,2.261732345304475,2.261732345304475,2.261732345304475,2.261732345304475,2.261732345304475,2.261894202711332,2.261732345304475,2.261732345304475
22.700654500000002,1.0,1.5168672160999428,1.0,0.0,2.26221791752557,2.2620560601183635,2.2620560601183635,2.261732345304475,2.261894202711332,2.261894202711332,2.261894202711332,2.261894202711332
22.701466,1.0,2.149424131383146,1.0,0.0,2.261894202711332,2.2620560601183635,2.261894202711332,2.2620560601183635,2.2620560601183635,2.261894202711332,2.2620560601183635,2.261894202711332
22.70263135,1.0,2.149424131383146,1.0,0.0,2.2623797749329517,2.261894202711332,2.26221791752557,2.2620560601183635,2.2620560601183635,2.26221791752557,2.2620560601183635,2.26221791752557
22.7037964,1.0,1.9843621806995522,1.0,0.0,2.2620560601183635,2.2623797749329517,2.26221791752557,2.26221791752557,2.26221791752557,2.2620560601183635,2.2620560601183635,2.2620560601183635
22.704597500000002,1.0,1.9843621806995522,1.0,0.0,2.26221791752557,2.26221791752557,2.26221791752557,2.26221791752557,2.26221791752557,2.2623797749329517,2.26221791752557,2.26221791752557
22.7053986,1.0,1.9843621806995522,1.0,0.0,2.2623797749329517,2.2623797749329517,2.26221791752557,2.2623797749329517,2.26221791752557,2.2623797749329517,2.2623797749329517,2.2623797749329517
22.7061994,1.0,3.0645089702503334,1.0,0.0,2.2623797749329517,2.2623797749329517,2.2625416323405085,2.2623797749329517,2.26221791752557,2.2623797749329517,2.26221791752557,2.2623797749329517
22.707389749999997,1.0,3.0645089702503334,1.0,0.0,2.2625416323405085,2.26221791752557,2.26221791752557,2.2623797749329517,2.2623797749329517,2.2625416323405085,2.26221791752557,2.2625416323405085
22.7085798,1.0,2.2413182811634194,1.0,0.0,0.43550409494626596,-0.6372766772323863,-0.7379509802233936,-0.5626611557025729,-0.23959695359908173,1.153012707247158,1.689405579323035,-0.21904126235586374
22.7097773,1.0,2.2413182811634194,1.0,0.0,5.310358215633014,5.310358215633014,5.310358215633014,4.336438294882416,-0.274072245767617,-1.1100574678900248,-2.078279721149218,-5.178659455033105
22.7109745,1.0,1.352079923619474,1.0,0.0,5.310358215633014,5.310358215633014,5.310358215633014,5.310358215633014,5.310358215633014,1.7688773085182246,-3.347396793137863,-5.296978735969328
22.7119168,1.0,1.352079923619474,1.0,0.0,5.310358215633014,5.310358215633014,5.310358215633014,5.310358215633014,5.310358215633014,5.310358215633014,5.310358215633014,5.310358215633014
22.7128591,1.0,1.352079923619474,1.0,0.0,5.310358215633014,5.310358215633014,5.310358215633014,5.310358215633014,5.310358215633014,5.310358215633014,5.310358215633014,5.310358215633014
22.7138008,1.0,1.0020871715442787,1.0,0.0,0.4437587528588725,0.2721913878426479,3.870281449497851,5.310358215633014,5.310358215633014,5.310358215633014,5.310358215633014,5.310358215633014
22.7146432,1.0,1.0020871715442787,1.0,0.0,0.43955049586164496,1.2409007654125805,1.1716261974693751,0.8348031658001736,0.5711394777183358,0.3090945509950322,1.3537147685187891,3.715705638791996
22.7154856,1.0,1.0020871715442787,1.0,0.0,2.261408630491287,2.2612467730849555,2.2612467730849555,2.261408630491287,2.2615704878977936,2.261408630491287,2.261408630491287,2.261408630491287
22.7163276,1.0,1.4819341258899819,1.0,0.0,2.261732345304475,2.261732345304475,2.261894202711332,2.261894202711332,2.261732345304475,2.2615704878977936,2.261732345304475,2.261732345304475
22.7175438,1.0,1.4819341258899819,1.0,0.0,2.261894202711332,2.261894202711332,2.261894202711332,2.261894202711332,2.261894202711332,2.2620560601183635,2.261894202711332,2.2620560601183635
22.7187597,1.0,1.6632447795765053,1.0,0.0,2.26221791752557,2.261894202711332,2.2620560601183635,2.2620560601183635,2.261894202711332,2.26221791752557,2.261894202711332,2.2620560601183635
22.719489233333334,1.0,1.6632447795765053,1.0,0.0,2.26221791752557,2.2620560601183635,2.26221791752557,2.2620560601183635,2.2620560601183635,2.26221791752557,2.2620560601183635,2.2620560601183635
22.720218766666665,1.0,1.6632447795765053,1.0,0.0,2.26221791752557,2.2620560601183635,2.26221791752557,2.2620560601183635,2.26221791752557,2.26221791752557,2.26221791752557,2.2620560601183635
22.720948,1.0,1.2195287303821694,1.0,0.0,2.2615704878977936,2.26221791752557,2.2625416323405085,2.2623797749329517,2.26221791752557,2.26221791752557,2.26221791752557,2.26221791752557
22.72212105,1.0,1.2195287303821694,1.0,0.0,2.2627034897482408,2.2623797749329517,2.2623797749329517,2.2623797749329517,2.2623797749329517,2.26221791752557,2.2623797749329517,2.2625416323405085
22.7232938,1.0,1.682951505650724,1.0,0.0,2.26221791752557,2.2623797749329517,2.2623797749329517,2.2623797749329517,2.2625416323405085,2.2623797749329517,2.2623797749329517,2.26221791752557
22.724516,1.0,1.682951505650724,1.0,0.0,0.432266974244563,1.4940444650893574,2.1243154690730273,2.260437486055922,2.261732345304475,2.26221791752557,2.2623797749329517,2.2623797749329517
22.7257378,1.0,1.604826505650724,1.0,0.0,5.310358215633014,5.310358215633014,2.610373621348603,-2.661447925741451,-5.296978735969328,-5.296978735969328,-5.296978735969328,-5.296978735969328
22.72654736666667,1.0,1.604826505650724,1.0,0.0,5.310358215633014,5.310358215633014,5.310358215633014,5.310358215633014,-2.8399756852761313,-5.296978735969328,-5.296978735969328,-5.296978735969328
22.727356933333333,1.0,1.604826505650724,1.0,0.0,5.310358215633014,5.310358215633014,5.310358215633014,5.310358215633014,5.310358215633014,1.4325389347406419,-3.999034578297866,-5.296978735969328
22.7281661,1.0,2.195627744664396,1.0,0.0,5.310358215633014,5.310358215633014,5.310358215633014,5.310358215633014,5.310358215633014,5.310358215633014,5.310358215633014,5.310358215633014
22.72958115,1.0,2.195627744664396,1.0,0.0,5.310358215633014,5.310358215633014,5.310358215633014,5.310358215633014,5.310358215633014,5.310358215633014,5.310358215633014,5.310358215633014
22.7309957,1.0,2.1702733592884194,1.0,0.0,0.43728451134378915,0.5675786436232206,0.47030314422261876,0.2440284495910022,2.7780584148247356,5.141212213053338,5.310358215633014,5.310358215633014
22.731966766666666,1.0,2.1702733592884194,1.0,0.0,2.2610849156787984,5.310358215633014,5.310358215633014,2.1035977409550526,2.1524786351244876,3.604346458866301,2.2541250473794894,2.124639183596526
22.732937833333335,1.0,2.1702733592884194,1.0,0.0,2.2612467730849555,2.2612467730849555,2.2612467730849555,2.2612467730849555,2.261408630491287,2.261408630491287,2.2612467730849555,2.261408630491287
22.7339084,1.0,2.1238542156116615,1.0,0.0,2.2620560601183635,2.261732345304475,2.261732345304475,2.2615704878977936,2.261732345304475,2.2615704878977936,2.2615704878977936,2.2615704878977936
22.7348533,1.0,2.1238542156116615,1.0,0.0,2.261732345304475,2.261732345304475,2.261894202711332,2.261894202711332,2.261894202711332,2.261732345304475,2.261894202711332,2.261894202711332
22.7357982,1.0,2.1238542156116615,1.0,0.0,2.26221791752557,2.2620560601183635,2.2620560601183635,2.261732345304475,2.261894202711332,2.261894202711332,2.261894202711332,2.261732345304475
22.7367426,1.0,1.5017610149280678,1.0,0.0,2.2620560601183635,2.26221791752557,2.2620560601183635,2.2620560601183635,2.261894202711332,2.26221791752557,2.2620560601183635,2.261894202711332
22.738144,1.0,1.5017610149280678,1.0,0.0,2.26221791752557,2.26221791752557,2.2620560601183635,2.2620560601183635,2.26221791752557,2.26221791752557,2.2620560601183635,2.26221791752557
22.7395451,1.0,2.057707365025724,1.0,0.0,0.43922678378684754,1.3838200934216,2.0472714313061573,2.259790056435845,2.2615704878977936,2.2620560601183635,2.26221791752557,2.2623797749329517
22.740477433333332,1.0,2.057707365025724,1.0,0.0,2.2625416323405085,2.2623797749329517,2.26221791752557,2.2625416323405085,2.2620560601183635,2.26221791752557,2.2623797749329517,2.2623797749329517
22.741409766666667,1.0,2.057707365025724,1.0,0.0,2.2627034897482408,2.2623797749329517,2.26221791752557,2.2625416323405085,2.2623797749329517,2.2623797749329517,2.2623797749329517,2.2625416323405085
22.7423413,1.0,1.4882684306995522,1.0,0.0,0.43744636738033593,-0.1521947984529414,0.2632893094708748,1.3796118219429867,2.015709283664305,2.259628199031263,2.2615704878977936,2.2620560601183635
22.7432292,1.0,1.4882684306995522,1.0,0.0,5.310358215633014,5.310358215633014,5.310358215633014,1.814844679094577,-3.8285984888112856,-4.296205711539889,-3.2214720632084237,-4.998348259794015
22.7441171,1.0,1.4882684306995522,1.0,0.0,5.310358215633014,5.310358215633014,5.310358215633014,5.310358215633014,5.310358215633014,-2.2454771415256203,-4.122693943922348,-5.296978735969328
22.7450045,1.0,1.3758779125110756,1.0,0.0,5.310358215633014,5.310358215633014,5.310358215633014,5.310358215633014,5.310358215633014,5.310358215633014,5.310358215633014,5.310358215633014
22.745889533333333,1.0,1.3758779125110756,1.0,0.0,5.310358215633014,5.310358215633014,5.310358215633014,5.310358215633014,5.310358215633014,5.310358215633014,5.310358215633014,5.310358215633014
22.746774566666666,1.0,1.3758779125110756,1.0,0.0,5.310358215633014,5.310358215633014,5.310358215633014,5.310358215633014,5.310358215633014,5.310358215633014,5.310358215633014,5.310358215633014
22.7476593,1.0,1.7375741557972084,1.0,0.0,0.43987420793671533,1.0086368140172197,0.8501795082876493,0.5957416052032867,0.5894292170610034,3.799872542406359,5.310358215633014,5.310358215633014
22.74896935,1.0,1.7375741557972084,1.0,0.0,2.2610849156787984,2.9277771663120116,2.6330337160817443,3.3023176509236607,2.2586570546074447,2.2528301881966524,2.260923058272817,2.259142626818567
22.7502791,1.0,2.548117216099943,1.0,0.0,2.261894202711332,2.261732345304475,2.2615704878977936,2.261732345304475,2.261894202711332,2.2615704878977936,2.261732345304475,2.261732345304475
22.751181233333334,1.0,2.548117216099943,1.0,0.0,2.2623797749329517,2.261894202711332,2.261894202711332,2.261732345304475,2.2620560601183635,2.261732345304475,2.261894202711332,2.261894202711332
22.752083366666668,1.0,2.548117216099943,1.0,0.0,2.261894202711332,2.2620560601183635,2.2620560601183635,2.261894202711332,2.2620560601183635,2.261894202711332,2.261894202711332,2.2620560601183635
22.7529851,1.0,2.601519163121427,1.0,0.0,2.26221791752557,2.2620560601183635,2.26221791752557,2.2620560601183635,2.26221791752557,2.2620560601183635,2.2620560601183635,2.2620560601183635
22.753784733333333,1.0,2.601519163121427,1.0,0.0,2.26221791752557,2.2620560601183635,2.26221791752557,2.26221791752557,2.2620560601183635,2.26221791752557,2.26221791752557,2.26221791752557
22.754584366666666,1.0,2.601519163121427,1.0,0.0,2.2623797749329517,2.2623797749329517,2.2623797749329517,2.26221791752557,2.26221791752557,2.26221791752557,2.2623797749329517,2.2625416323405085
22.7553837,1.0,2.3365750865833412,1.0,0.0,2.26221791752557,2.2623797749329517,2.26221791752557,2.2623797749329517,2.26221791752557,2.2623797749329517,2.2623797749329517,2.2623797749329517
22.756733150000002,1.0,2.3365750865833412,1.0,0.0,2.2623797749329517,2.2623797749329517,2.2623797749329517,2.2623797749329517,2.2623797749329517,2.2625416323405085,2.26221791752557,2.2627034897482408
22.7580822,1.0,2.4076982097522865,1.0,0.0,2.2623797749329517,2.2623797749329517,2.2625416323405085,2.2623797749329517,2.2623797749329517,2.2625416323405085,2.2627034897482408,2.26221791752557
22.758793766666667,1.0,2.4076982097522865,1.0,0.0,0.4400360639743529,-0.6840530013976363,-0.7737211103423927,-0.5827312744512106,-0.40452803611294985,1.075645345931,0.6905892979303577,-1.2036101354393332
22.759505333333333,1.0,2.4076982097522865,1.0,0.0,5.310358215633014,5.310358215633014,5.310358215633014,2.7634911944481235,-2.7978929727200317,-0.9554851695411086,-4.753779439987364,-5.296978735969328
22.7602166,1.0,1.9846559123890053,1.0,0.0,5.310358215633014,5.310358215633014,5.310358215633014,5.310358215633014,5.310358215633014,0.11017358755138984,-3.8112797333623356,-5.296978735969328
22.761513,1.0,1.9846559123890053,1.0,0.0,5.310358215633014,5.310358215633014,5.310358215633014,5.310358215633014,5.310358215633014,5.310358215633014,5.310358215633014,5.310358215633014
22.7628092,1.0,1.3618341045276772,1.0,0.0,5.310358215633014,5.310358215633014,5.310358215633014,5.310358215633014,5.310358215633014,5.310358215633014,5.310358215633014,5.310358215633014
22.7636104,1.0,1.3618341045276772,1.0,0.0,0.44068348812558567,0.2896718331610162,3.505936120861001,5.310358215633014,5.310358215633014,5.310358215633014,5.310358215633014,5.310358215633014
22.7644116,1.0,1.3618341045276772,1.0,0.0,0.4371226553073104,1.2648555274242093,1.2059397659157582,0.8632898641187284,0.5928281952768734,0.3293265496665922,1.1097970442316991,3.5512566597424424
22.7652125,1.0,1.3617559032337319,1.0,0.0,2.261732345304475,2.2612467730849555,2.2615704878977936,2.261408630491287,2.261408630491287,2.261408630491287,2.2612467730849555,2.261408630491287
22.76638845,1.0,1.3617559032337319,1.0,0.0,2.261732345304475,2.2615704878977936,2.261894202711332,2.2615704878977936,2.261732345304475,2.2615704878977936,2.2615704878977936,2.261408630491287
22.7675641,1.0,1.2588468150989662,1.0,0.0,2.2620560601183635,2.261732345304475,2.261732345304475,2.2620560601183635,2.261894202711332,2.2620560601183635,2.261894202711332,2.261732345304475
22.7687767,1.0,1.2588468150989662,1.0,0.0,2.26221791752557,2.2620560601183635,2.2620560601183635,2.2620560601183635,2.2620560601183635,2.2620560601183635,2.261894202711332,2.2620560601183635
22.7699889,1.0,1.0810971813099037,1.0,0.0,2.26221791752557,2.2623797749329517,2.2620560601183635,2.26221791752557,2.2620560601183635,2.2620560601183635,2.2620560601183635,2.2620560601183635
22.7708495,1.0,1.0810971813099037,1.0,0.0,2.2620560601183635,2.26221791752557,2.26221791752557,2.26221791752557,2.26221791752557,2.2620560601183635,2.2623797749329517,2.2620560601183635
22.7717101,1.0,1.0810971813099037,1.0,0.0,2.26302720456423,2.2620560601183635,2.26221791752557,2.2623797749329517,2.26221791752557,2.2625416323405085,2.2623797749329517,2.26221791752557
22.77257,1.0,1.6869454936878334,1.0,0.0,2.2623797749329517,2.2623797749329517,2.26221791752557,2.2623797749329517,2.26221791752557,2.2625416323405085,2.2623797749329517,2.26221791752557
22.77373135,1.0,1.6869454936878334,1.0,0.0,2.2625416323405085,2.2625416323405085,2.2625416323405085,2.2623797749329517,2.2627034897482408,2.2625416323405085,2.2623797749329517,2.2625416323405085
22.7748925,1.0,1.7823205547229897,1.0,0.0,0.45266083512111055,1.4553607214751438,2.099227595527703,2.260275628650641,2.261732345304475,2.2623797749329517,2.2623797749329517,2.2627034897482408
22.775708933333334,1.0,1.7823205547229897,1.0,0.0,5.310358215633014,5.310358215633014,2.7855038836589787,-2.679090281838402,-4.749894830476949,-5.296978735969328,-5.296978735969328,-5.296978735969328
22.776525366666664,1.0,1.7823205547229897,1.0,0.0,5.310358215633014,5.310358215633014,5.310358215633014,5.310358215633014,-2.2511421089737005,-5.296978735969328,-5.296978735969328,-5.296978735969328
22.7773414,1.0,1.8700833873645912,1.0,0.0,5.310358215633014,5.310358215633014,5.310358215633014,5.310358215633014,5.310358215633014,5.080513978876565,-3.2726188577430233,-5.296978735969328
22.7787064,1.0,1.8700833873645912,1.0,0.0,5.310358215633014,5.310358215633014,5.310358215633014,5.310358215633014,5.310358215633014,5.310358215633014,5.310358215633014,5.310358215633014
22.7800711,1.0,1.545328672398771,1.0,0.0,5.310358215633014,5.310358215633014,5.310358215633014,5.310358215633014,5.310358215633014,5.310358215633014,5.310358215633014,5.310358215633014
22.780963800000002,1.0,1.545328672398771,1.0,0.0,0.4505567065676241,0.527923902745027,0.43744636738033593,0.21392324163487061,3.2828946052417103,5.310358215633014,5.310358215633014,5.310358215633014
22.7818565,1.0,1.545328672398771,1.0,0.0,2.2612467730849555,5.310358215633014,5.310358215633014,5.310358215633014,2.145033199926823,2.227580436357733,2.257524052787612,2.2531539029913144
22.7827487,1.0,1.685587461461271,1.0,0.0,2.2615704878977936,2.261408630491287,2.2612467730849555,2.2615704878977936,2.261408630491287,2.2615704878977936,2.261732345304475,2.2615704878977936
22.7835012,1.0,1.685587461461271,1.0,0.0,2.2615704878977936,2.261732345304475,2.2615704878977936,2.261894202711332,2.261894202711332,2.261732345304475,2.261894202711332,2.2615704878977936
22.7842537,1.0,1.685587461461271,1.0,0.0,2.26221791752557,2.261894202711332,2.2620560601183635,2.2620560601183635,2.261894202711332,2.2620560601183635,2.261894202711332,2.2620560601183635
22.7850059,1.0,1.7080312328235756,1.0,0.0,2.26221791752557,2.2620560601183635,2.2620560601183635,2.2620560601183635,2.261894202711332,2.2620560601183635,2.261894202711332,2.2620560601183635
22.78619905,1.0,1.7080312328235756,1.0,0.0,2.2623797749329517,2.26221791752557,2.2620560601183635,2.2620560601183635,2.2620560601183635,2.26221791752557,2.26221791752557,2.26221791752557
22.7873919,1.0,1.5310082988636147,1.0,0.0,2.26221791752557,2.2623797749329517,2.26221791752557,2.26221791752557,2.2620560601183635,2.26221791752557,2.26221791752557,2.26221791752557
22.788611500000002,1.0,1.5310082988636147,1.0,0.0,0.4377700794536339,0.828328916578989,1.7518823329562927,2.2568766231801245,2.260923058272817,2.261732345304475,2.2620560601183635,2.2623797749329517
22.7898306,1.0,2.0394349651233803,1.0,0.0,2.2623797749329517,2.2623797749329517,2.26221791752557,2.2623797749329517,2.2623797749329517,2.2625416323405085,2.2623797749329517,2.26221791752557
22.790635899999998,1.0,2.0394349651233803,1.0,0.0,2.2625416323405085,2.2625416323405085,2.2623797749329517,2.26221791752557,2.2623797749329517,2.2623797749329517,2.2623797749329517,2.2625416323405085
22.7914412,1.0,2.0394349651233803,1.0,0.0,0.4813093558258394,-0.1729123471679611,0.09512098736152445,1.2931804182357998,1.962134575201423,2.259142626818567,2.261408630491287,2.26221791752557
22.7922462,1.0,1.8823781566517006,1.0,0.0,5.310358215633014,5.310358215633014,5.310358215633014,1.773733016117099,-2.9416216566634255,-5.035252141164157,-3.437065616166977,-4.308506927942354
22.7934487,1.0,1.8823781566517006,1.0,0.0,5.310358215633014,5.310358215633014,5.310358215633014,5.310358215633014,5.310358215633014,-2.447473765669801,-4.392187603522097,-5.296978735969328
22.7946508,1.0,1.8587155895130287,1.0,0.0,5.310358215633014,5.310358215633014,5.310358215633014,5.310358215633014,5.310358215633014,5.310358215633014,5.310358215633014,5.310358215633014
22.795467633333335,1.0,1.8587155895130287,1.0,0.0,5.310358215633014,5.310358215633014,5.310358215633014,5.310358215633014,5.310358215633014,5.310358215633014,5.310358215633014,5.310358215633014
22.796284466666666,1.0,1.8587155895130287,1.0,0.0,5.310358215633014,5.310358215633014,5.310358215633014,5.310358215633014,5.310358215633014,5.310358215633014,5.310358215633014,5.310358215633014
22.7971009,1.0,1.5514054851429115,1.0,0.0,0.4714361365785376,1.0011914226693996,0.8911291402602568,0.5818219802246024,0.36995240593225537,3.507069134095235,5.310358215633014,5.310358215633014
22.7983345,1.0,1.5514054851429115,1.0,0.0,2.2615704878977936,2.1693117942794475,2.1586292122960025,2.782428581261681,2.2594663416268563,2.2552580491736376,2.2607612008670106,2.2594663416268563
22.7995678,1.0,1.722645338048185,1.0,0.0,2.261894202711332,2.261732345304475,2.261732345304475,2.261408630491287,2.261732345304475,2.261732345304475,2.261894202711332,2.261894202711332
22.800759399999997,1.0,1.722645338048185,1.0,0.0,2.261732345304475,2.2620560601183635,2.2620560601183635,2.261894202711332,2.261894202711332,2.2620560601183635,2.261894202711332,2.261894202711332
22.8019507,1.0,1.4833303050892006,1.0,0.0,2.2620560601183635,2.2620560601183635,2.2620560601183635,2.261894202711332,2.261894202711332,2.26221791752557,2.2620560601183635,2.2620560601183635
22.802694433333333,1.0,1.4833303050892006,1.0,0.0,2.2620560601183635,2.2623797749329517,2.2620560601183635,2.2620560601183635,2.2620560601183635,2.26221791752557,2.2620560601183635,2.2620560601183635
22.803438166666666,1.0,1.4833303050892006,1.0,0.0,2.2623797749329517,2.2620560601183635,2.26221791752557,2.26221791752557,2.2620560601183635,2.26221791752557,2.26221791752557,2.2623797749329517
22.8041816,1.0,1.2471051769153725,1.0,0.0,2.2625416323405085,2.26221791752557,2.26221791752557,2.2623797749329517,2.2620560601183635,2.26221791752557,2.2620560601183635,2.26221791752557
22.8053155,1.0,1.2471051769153725,1.0,0.0,2.2623797749329517,2.2623797749329517,2.2623797749329517,2.2623797749329517,2.2623797749329517,2.2623797749329517,2.2623797749329517,2.26221791752557
22.806449,1.0,2.091419752110685,1.0,0.0,2.2623797749329517,2.2623797749329517,2.2625416323405085,2.2623797749329517,2.26221791752557,2.2623797749329517,2.2623797749329517,2.2623797749329517
22.8075585,1.0,2.091419752110685,1.0,0.0,2.26221791752557,2.2623797749329517,2.2623797749329517,2.2623797749329517,2.2623797749329517,2.2623797749329517,2.2625416323405085,2.2627034897482408
22.8086677,1.0,2.2043805675403725,1.0,0.0,0.5038073482111687,-0.6592890651139244,-0.7500901646434002,-0.5591003281679575,-0.26452275181656215,0.9945553131702409,0.5902384975855078,-3.9274934784159092
22.8097358,1.0,2.2043805675403725,1.0,0.0,5.310358215633014,5.310358215633014,5.310358215633014,0.5661219387766977,-2.4097612435214026,-2.665494337570614,-3.54227278134313,-5.296978735969328
22.8108036,1.0,2.0508237438099037,1.0,0.0,5.310358215633014,5.310358215633014,5.310358215633014,5.310358215633014,5.310358215633014,-1.8036099849632306,-3.9572752892474736,-5.296978735969328
22.8117664,1.0,2.0508237438099037,1.0,0.0,5.310358215633014,5.310358215633014,5.310358215633014,5.310358215633014,5.310358215633014,5.310358215633014,5.310358215633014,5.310358215633014
22.8127292,1.0,2.0508237438099037,1.0,0.0,5.310358215633014,5.310358215633014,5.310358215633014,5.310358215633014,5.310358215633014,5.310358215633014,5.310358215633014,5.310358215633014
22.8136916,1.0,1.5635610179798256,1.0,0.0,0.5015413633040364,0.3123316707183968,2.8670803535156013,5.310358215633014,5.310358215633014,5.310358215633014,5.310358215633014,5.310358215633014
22.814480933333332,1.0,1.5635610179798256,1.0,0.0,0.499275378410988,1.2527162896010526,1.2090150388064995,0.8658795641080347,0.5960653174188792,0.3306213976142319,0.9898614797243614,3.429376826015733
22.815270266666666,1.0,1.5635610179798256,1.0,0.0,2.2610849156787984,2.2612467730849555,2.2610849156787984,2.261408630491287,2.2612467730849555,2.261408630491287,2.2612467730849555,2.261408630491287
22.8160593,1.0,1.92360359000131,1.0,0.0,2.2615704878977936,2.261732345304475,2.261732345304475,2.261894202711332,2.2615704878977936,2.261732345304475,2.2615704878977936,2.261732345304475
22.817425049999997,1.0,1.92360359000131,1.0,0.0,2.2615704878977936,2.2620560601183635,2.261732345304475,2.261894202711332,2.261894202711332,2.261732345304475,2.2620560601183635,2.2615704878977936
22.8187904,1.0,1.51332526968881,1.0,0.0,2.2620560601183635,2.261894202711332,2.261894202711332,2.2620560601183635,2.2620560601183635,2.2620560601183635,2.2620560601183635,2.2620560601183635
22.819559033333334,1.0,1.51332526968881,1.0,0.0,2.261894202711332,2.26221791752557,2.26221791752557,2.261894202711332,2.261894202711332,2.2620560601183635,2.2620560601183635,2.2620560601183635
22.820327666666667,1.0,1.51332526968881,1.0,0.0,2.26221791752557,2.2623797749329517,2.26221791752557,2.2623797749329517,2.26221791752557,2.26221791752557,2.2620560601183635,2.26221791752557
22.821096,1.0,1.25526862906381,1.0,0.0,2.261408630491287,2.2623797749329517,2.2623797749329517,2.2620560601183635,2.26221791752557,2.26221791752557,2.26221791752557,2.26221791752557
22.822224650000003,1.0,1.25526862906381,1.0,0.0,2.2623797749329517,2.2623797749329517,2.26221791752557,2.2623797749329517,2.2623797749329517,2.26221791752557,2.2623797749329517,2.26221791752557
22.823353,1.0,1.6114545421497475,1.0,0.0,2.2625416323405085,2.2623797749329517,2.2623797749329517,2.2625416323405085,2.2623797749329517,2.2623797749329517,2.2627034897482408,2.2623797749329517
22.8246057,1.0,1.6114545421497475,1.0,0.0,0.5188599625965414,1.4283306622847265,2.077700584624522,2.260275628650641,2.261732345304475,2.2625416323405085,2.26221791752557,2.2627034897482408
22.8258579,1.0,1.9560189800159584,1.0,0.0,5.310358215633014,5.310358215633014,3.8215617175970937,-2.228644096037143,-4.735165687316942,-5.283058813202438,-5.296978735969328,-5.296978735969328
22.8266872,1.0,1.9560189800159584,1.0,0.0,5.310358215633014,5.310358215633014,5.310358215633014,5.310358215633014,-1.5995096121174437,-5.080734574445656,-5.296978735969328,-5.296978735969328
22.8275165,1.0,1.9560189800159584,1.0,0.0,5.310358215633014,5.310358215633014,5.310358215633014,5.310358215633014,5.310358215633014,5.310358215633014,-2.525164815840926,-4.946067783454449
22.828345,1.0,2.248911436070646,1.0,0.0,5.310358215633014,5.310358215633014,5.310358215633014,5.310358215633014,5.310358215633014,5.310358215633014,5.310358215633014,5.310358215633014
22.829765549999998,1.0,2.248911436070646,1.0,0.0,5.310358215633014,5.310358215633014,5.310358215633014,5.310358215633014,5.310358215633014,5.310358215633014,5.310358215633014,5.310358215633014
22.8311857,1.0,1.9406571941272865,1.0,0.0,0.5114145833598865,0.5897529292705741,0.47078871237473513,0.23318410026543815,3.189340315631722,5.310358215633014,5.310358215633014,5.310358215633014
22.832011966666666,1.0,1.9406571941272865,1.0,0.0,2.2615704878977936,5.310358215633014,5.310358215633014,5.310358215633014,3.843898335854592,2.251535329024984,5.023700475051329,2.2539631899810235
22.832838233333334,1.0,1.9406571941272865,1.0,0.0,2.261732345304475,2.261732345304475,2.2615704878977936,2.2615704878977936,2.261408630491287,2.2615704878977936,2.2615704878977936,2.261408630491287
22.8336641,1.0,1.9948850231067787,1.0,0.0,2.261732345304475,2.261894202711332,2.261894202711332,2.261894202711332,2.261732345304475,2.261894202711332,2.261732345304475,2.2615704878977936
22.8348807,1.0,1.9948850231067787,1.0,0.0,2.2615704878977936,2.261894202711332,2.261732345304475,2.2620560601183635,2.2620560601183635,2.2620560601183635,2.2620560601183635,2.2620560601183635
22.8360969,1.0,1.560413892735685,1.0,0.0,2.26221791752557,2.261894202711332,2.2620560601183635,2.2620560601183635,2.2620560601183635,2.261894202711332,2.2620560601183635,2.2620560601183635
22.836867933333334,1.0,1.560413892735685,1.0,0.0,2.26221791752557,2.26221791752557,2.2620560601183635,2.2620560601183635,2.26221791752557,2.26221791752557,2.2620560601183635,2.2620560601183635
22.837638966666667,1.0,1.560413892735685,1.0,0.0,2.2623797749329517,2.26221791752557,2.2623797749329517,2.26221791752557,2.26221791752557,2.26221791752557,2.26221791752557,2.2623797749329517
22.8384096,1.0,1.8980336742298256,1.0,0.0,0.5190218186686126,0.6285983966777736,1.604754467385265,2.2100998413997344,2.260437486055922,2.261732345304475,2.26221791752557,2.2623797749329517
22.839466549999997,1.0,1.8980336742298256,1.0,0.0,2.2623797749329517,2.2625416323405085,2.2625416323405085,2.2623797749329517,2.26221791752557,2.2623797749329517,2.2623797749329517,2.2623797749329517
22.8405231,1.0,2.389879758824552,1.0,0.0,2.26221791752557,2.2623797749329517,2.2627034897482408,2.26221791752557,2.2625416323405085,2.2625416323405085,2.2625416323405085,2.2623797749329517
22.841697349999997,1.0,2.389879758824552,1.0,0.0,0.5169176897373685,-0.12484115907029349,0.16034892461590075,1.3276558616582281,1.9830141422899836,2.2594663416268563,2.261408630491287,2.26221791752557
22.8428712,1.0,1.6944394664661537,1.0,0.0,5.310358215633014,5.310358215633014,5.310358215633014,2.5742793354961617,-3.795741412480144,-4.199576461268519,-3.3333152313952166,-5.296978735969328
22.843636133333334,1.0,1.6944394664661537,1.0,0.0,5.310358215633014,5.310358215633014,5.310358215633014,5.310358215633014,5.310358215633014,-2.194168726992642,-4.1128206133939225,-5.296978735969328
22.844401066666666,1.0,1.6944394664661537,1.0,0.0,5.310358215633014,5.310358215633014,5.310358215633014,5.310358215633014,5.310358215633014,5.310358215633014,5.310358215633014,5.310358215633014
22.8451656,1.0,1.5556340770618569,1.0,0.0,5.310358215633014,5.310358215633014,5.310358215633014,5.310358215633014,5.310358215633014,5.310358215633014,5.310358215633014,5.310358215633014
22.84648125,1.0,1.5556340770618569,1.0,0.0,5.310358215633014,5.310358215633014,5.310358215633014,5.310358215633014,5.310358215633014,5.310358215633014,5.310358215633014,5.310358215633014
22.8477966,1.0,1.490274961461271,1.0,0.0,0.5204785233205341,1.066905101626734,0.9265756645243196,0.6240664252474089,0.39504008810499197,3.533128441843636,5.310358215633014,5.310358215633014
22.84856123333333,1.0,1.490274961461271,1.0,0.0,2.261408630491287,2.1463280581964774,3.849077842264941,2.2599519138406023,2.2580096249950627,2.2364825919723312,2.2610849156787984,2.2583333398009042
22.849325866666668,1.0,1.490274961461271,1.0,0.0,2.261732345304475,2.261732345304475,2.261732345304475,2.261732345304475,2.261894202711332,2.2615704878977936,2.2615704878977936,2.2615704878977936
22.8500902,1.0,1.4377961711780678,1.0,0.0,2.261894202711332,2.261732345304475,2.261732345304475,2.2620560601183635,2.2620560601183635,2.2620560601183635,2.261894202711332,2.261732345304475
22.85150675,1.0,1.4377961711780678,1.0,0.0,2.2620560601183635,2.2620560601183635,2.2620560601183635,2.2620560601183635,2.2620560601183635,2.2620560601183635,2.2620560601183635,2.26221791752557
22.8529228,1.0,1.471293027867521,1.0,0.0,2.26221791752557,2.2620560601183635,2.261894202711332,2.2623797749329517,2.26221791752557,2.2620560601183635,2.2620560601183635,2.26221791752557
22.853896000000002,1.0,1.471293027867521,1.0,0.0,2.2620560601183635,2.2623797749329517,2.26221791752557,2.26221791752557,2.26221791752557,2.2620560601183635,2.26221791752557,2.26221791752557
22.8548692,1.0,1.471293027867521,1.0,0.0,2.2625416323405085,2.2623797749329517,2.2623797749329517,2.2623797749329517,2.26221791752557,2.2620560601183635,2.26221791752557,2.26221791752557
22.8558417,1.0,1.590645368565763,1.0,0.0,2.2623797749329517,2.2623797749329517,2.26221791752557,2.26221791752557,2.2625416323405085,2.2623797749329517,2.2623797749329517,2.2623797749329517
22.8566556,1.0,1.590645368565763,1.0,0.0,2.2625416323405085,2.2625416323405085,2.2625416323405085,2.2623797749329517,2.2623797749329517,2.2623797749329517,2.2623797749329517,2.2625416323405085
22.8574695,1.0,1.590645368565763,1.0,0.0,2.2623797749329517,2.2623797749329517,2.2623797749329517,2.2625416323405085,2.2623797749329517,2.2623797749329517,2.2625416323405085,2.2627034897482408
22.8582831,1.0,1.194864805211271,1.0,0.0,0.5190218186686126,-0.6092756248613033,-0.7534891362823558,-0.5793323027371198,-0.4543796249677241,0.2943656565585222,-0.5424291810101012,-3.534341777260842
22.859460050000003,1.0,1.194864805211271,1.0,0.0,5.310358215633014,5.310358215633014,5.310358215633014,3.5985195283665714,-0.7248406610547354,-2.4948976747108094,-4.9656527266577175,-5.296978735969328
22.8606366,1.0,1.1704946117298256,1.0,0.0,5.310358215633014,5.310358215633014,5.310358215633014,5.310358215633014,5.310358215633014,0.4232030364238202,-3.8468883916877603,-5.296978735969328
22.861782599999998,1.0,1.1704946117298256,1.0,0.0,5.310358215633014,5.310358215633014,5.310358215633014,5.310358215633014,5.310358215633014,5.310358215633014,5.310358215633014,5.310358215633014
22.8629286,1.0,1.1704946117298256,1.0,0.0,5.310358215633014,5.310358215633014,5.310358215633014,5.310358215633014,5.310358215633014,5.310358215633014,5.310358215633014,5.310358215633014
22.8640742,1.0,1.774748380650724,1.0,0.0,0.5138424243984316,0.3608884695280687,2.6890365382379793,5.240757422003491,5.310358215633014,5.310358215633014,5.310358215633014,5.310358215633014
22.865099266666668,1.0,1.774748380650724,1.0,0.0,0.5123857197733471,1.290914426838266,1.2308656631594086,0.8788280644132811,0.6065859645946001,0.33741934940438184,0.9786933935889804,-1.5849425785417575
22.86612433333333,1.0,1.774748380650724,1.0,0.0,2.260923058272817,2.2612467730849555,2.2615704878977936,2.261408630491287,2.2612467730849555,2.261408630491287,2.2615704878977936,2.2612467730849555
22.867149,1.0,2.2272153453724037,1.0,0.0,2.261732345304475,2.261894202711332,2.261732345304475,2.2615704878977936,2.261732345304475,2.2615704878977936,2.2615704878977936,2.261894202711332
22.868064466666667,1.0,2.2272153453724037,1.0,0.0,2.261732345304475,2.261894202711332,2.261894202711332,2.261894202711332,2.26221791752557,2.261894202711332,2.261894202711332,2.2620560601183635
22.868979933333335,1.0,2.2272153453724037,1.0,0.0,2.2620560601183635,2.2620560601183635,2.26221791752557,2.261732345304475,2.261894202711332,2.261894202711332,2.2620560601183635,2.261894202711332
22.869895,1.0,1.49025398062631,1.0,0.0,2.2620560601183635,2.261894202711332,2.2623797749329517,2.2620560601183635,2.26221791752557,2.26221791752557,2.261894202711332,2.2620560601183635
22.870813466666668,1.0,1.49025398062631,1.0,0.0,2.2620560601183635,2.26221791752557,2.2620560601183635,2.2620560601183635,2.2620560601183635,2.2623797749329517,2.26221791752557,2.26221791752557
22.871731933333333,1.0,1.49025398062631,1.0,0.0,2.2627034897482408,2.26221791752557,2.2620560601183635,2.26221791752557,2.2623797749329517,2.26221791752557,2.2620560601183635,2.26221791752557
22.87265,1.0,1.5933995799915444,1.0,0.0,2.2623797749329517,2.2625416323405085,2.2625416323405085,2.2623797749329517,2.26221791752557,2.2623797749329517,2.26221791752557,2.2625416323405085
22.8734734,1.0,1.5933995799915444,1.0,0.0,2.2623797749329517,2.2623797749329517,2.2625416323405085,2.2625416323405085,2.26221791752557,2.2623797749329517,2.2623797749329517,2.2623797749329517
22.8742968,1.0,1.5933995799915444,1.0,0.0,0.5188599625965414,1.4388513435848171,2.0820707294593284,2.2601137712455337,2.261732345304475,2.26221791752557,2.26221791752557,2.2623797749329517
22.8751199,1.0,1.5360246257679115,1.0,0.0,5.310358215633014,5.310358215633014,3.608392938573451,-2.30455466464505,-4.252018457302402,-5.002556596483209,-5.296978735969328,-5.296978735969328
22.8766137,1.0,1.5360246257679115,1.0,0.0,5.310358215633014,5.310358215633014,5.310358215633014,5.310358215633014,-1.278225677962864,-5.168300454916977,-5.296978735969328,-5.296978735969328
22.878107,1.0,1.4867730693714272,1.0,0.0,5.310358215633014,5.310358215633014,5.310358215633014,5.310358215633014,5.310358215633014,5.310358215633014,-2.882543976122652,-5.296978735969328
22.8789194,1.0,1.4867730693714272,1.0,0.0,5.310358215633014,5.310358215633014,5.310358215633014,5.310358215633014,5.310358215633014,5.310358215633014,5.310358215633014,5.310358215633014
22.8797318,1.0,1.4867730693714272,1.0,0.0,5.310358215633014,5.310358215633014,5.310358215633014,5.310358215633014,5.310358215633014,5.310358215633014,5.310358215633014,5.310358215633014
22.8805438,1.0,1.1505895213977944,1.0,0.0,0.5125475758425109,0.5512311784735633,0.47095056842558064,0.24888412847591007,2.9405639653634155,5.268274007064326,5.310358215633014,5.310358215633014
22.8817251,1.0,1.1505895213977944,1.0,0.0,2.2615704878977936,5.310358215633014,4.77411001288651,5.310358215633014,2.1890583871657636,2.249916755076098,3.6025660078454043,2.257200337983519
22.882906,1.0,1.6132455425159584,1.0,0.0,2.2615704878977936,2.2615704878977936,2.2615704878977936,2.261732345304475,2.2615704878977936,2.2615704878977936,2.2615704878977936,2.261408630491287
22.883748333333333,1.0,1.6132455425159584,1.0,0.0,2.2620560601183635,2.261732345304475,2.261894202711332,2.261732345304475,2.261732345304475,2.261894202711332,2.261732345304475,2.261894202711332
22.884590666666664,1.0,1.6132455425159584,1.0,0.0,2.261894202711332,2.261732345304475,2.261894202711332,2.2620560601183635,2.261894202711332,2.2620560601183635,2.2620560601183635,2.261732345304475
22.8854327,1.0,1.0003572063343178,1.0,0.0,2.2625416323405085,2.26221791752557,2.2620560601183635,2.26221791752557,2.26221791752557,2.2620560601183635,2.2620560601183635,2.2620560601183635
22.88659685,1.0,1.0003572063343178,1.0,0.0,2.2623797749329517,2.26221791752557,2.2620560601183635,2.2620560601183635,2.26221791752557,2.2620560601183635,2.2620560601183635,2.26221791752557
22.8877605,1.0,1.0899301128284584,1.0,0.0,2.2625416323405085,2.26221791752557,2.26221791752557,2.26221791752557,2.26221791752557,2.26221791752557,2.26221791752557,2.26221791752557
22.888511166666667,1.0,1.0899301128284584,1.0,0.0,0.5232300765680724,0.5106053030173282,1.5555500142152014,2.180803663601808,2.260275628650641,2.261732345304475,2.26221791752557,2.2623797749329517
22.889261833333332,1.0,1.0899301128284584,1.0,0.0,2.2620560601183635,2.26221791752557,2.2625416323405085,2.2623797749329517,2.2623797749329517,2.26221791752557,2.2625416323405085,2.2623797749329517
22.8900121,1.0,2.196276243199552,1.0,0.0,2.2623797749329517,2.2623797749329517,2.2625416323405085,2.2623797749329517,2.26221791752557,2.26221791752557,2.2625416323405085,2.2623797749329517
22.89121535,1.0,2.196276243199552,1.0,0.0,0.5119001515662908,-0.1360092131380504,0.07229930399257259,1.2833071701728753,1.9556602913660919,2.259142626818567,2.2615704878977936,2.2620560601183635
22.8924182,1.0,1.8592458324329506,1.0,0.0,5.310358215633014,5.310358215633014,5.310358215633014,2.2024925460730396,-1.9183659076663813,-4.946391501494428,-3.2167782125480886,-2.9495526342634477
22.893641000000002,1.0,1.8592458324329506,1.0,0.0,5.310358215633014,5.310358215633014,5.310358215633014,5.310358215633014,5.310358215633014,-1.509841433995179,-3.974432204918208,-5.296978735969328
22.8948634,1.0,1.7697911815540444,1.0,0.0,5.310358215633014,5.310358215633014,5.310358215633014,5.310358215633014,5.310358215633014,5.310358215633014,5.310358215633014,5.310358215633014
22.896073766666667,1.0,1.7697911815540444,1.0,0.0,5.310358215633014,5.310358215633014,5.310358215633014,5.310358215633014,5.310358215633014,5.310358215633014,5.310358215633014,5.310358215633014
22.897284133333333,1.0,1.7697911815540444,1.0,0.0,5.310358215633014,5.310358215633014,5.310358215633014,5.310358215633014,5.310358215633014,5.310358215633014,5.310358215633014,5.310358215633014
22.898494,1.0,1.8822789745227944,1.0,0.0,0.5073681816651797,1.174054044128148,1.0228801719779737,0.6329685120445062,0.390508119596867,3.429862402765925,5.310358215633014,5.310358215633014
22.899455933333332,1.0,1.8822789745227944,1.0,0.0,2.261732345304475,2.101169882369396,2.0985801665857693,3.5947967673859242,2.2601137712455337,2.2578477675924042,2.2081575531951336,2.260599343461379
22.90041786666667,1.0,1.8822789745227944,1.0,0.0,2.261894202711332,2.261732345304475,2.261732345304475,2.261732345304475,2.261894202711332,2.261732345304475,2.261408630491287,2.261732345304475
22.9013793,1.0,1.5235734538929115,1.0,0.0,2.261894202711332,2.261894202711332,2.2620560601183635,2.261894202711332,2.261894202711332,2.261732345304475,2.261894202711332,2.261894202711332
22.902196933333332,1.0,1.5235734538929115,1.0,0.0,2.2620560601183635,2.26221791752557,2.26221791752557,2.2620560601183635,2.261894202711332,2.261894202711332,2.261894202711332,2.261894202711332
22.903014566666666,1.0,1.5235734538929115,1.0,0.0,2.2623797749329517,2.2620560601183635,2.2620560601183635,2.26221791752557,2.2620560601183635,2.2620560601183635,2.2620560601183635,2.26221791752557
22.9038319,1.0,1.2381749706165444,1.0,0.0,2.26221791752557,2.2623797749329517,2.2620560601183635,2.2620560601183635,2.26221791752557,2.26221791752557,2.26221791752557,2.26221791752557
22.904731466666668,1.0,1.2381749706165444,1.0,0.0,2.2620560601183635,2.26221791752557,2.26221791752557,2.26221791752557,2.26221791752557,2.26221791752557,2.2623797749329517,2.26221791752557
22.905631033333332,1.0,1.2381749706165444,1.0,0.0,2.2625416323405085,2.2623797749329517,2.2623797749329517,2.26221791752557,2.2625416323405085,2.2623797749329517,2.2623797749329517,2.26221791752557
22.90653,1.0,1.664955671300138,1.0,0.0,2.2625416323405085,2.2623797749329517,2.2625416323405085,2.2623797749329517,2.2623797749329517,2.2623797749329517,2.2623797749329517,2.26221791752557
22.907929250000002,1.0,1.664955671300138,1.0,0.0,2.2623797749329517,2.26221791752557,2.2623797749329517,2.2623797749329517,2.2623797749329517,2.2623797749329517,2.2623797749329517,2.2625416323405085
22.9093281,1.0,1.8515363292591225,1.0,0.0,0.5125475758425109,-0.6520055544267979,-0.7798716304647701,-0.5903384968458114,-0.45955901073195377,-0.9642253828623805,-3.0081447642697334,-3.0978134172426537
22.910229166666667,1.0,1.8515363292591225,1.0,0.0,5.310358215633014,5.310358215633014,5.310358215633014,5.310358215633014,-0.8182314534600164,-3.3598597855359413,-5.296978735969328,-5.296978735969328
22.91113023333333,1.0,1.8515363292591225,1.0,0.0,5.310358215633014,5.310358215633014,5.310358215633014,5.310358215633014,5.310358215633014,0.9748088420012823,-3.794122837483818,-5.296978735969328
22.9120306,1.0,1.3863435344593178,1.0,0.0,5.310358215633014,5.310358215633014,5.310358215633014,5.310358215633014,5.310358215633014,5.310358215633014,5.310358215633014,5.310358215633014
22.912969766666667,1.0,1.3863435344593178,1.0,0.0,5.310358215633014,5.310358215633014,5.310358215633014,5.310358215633014,5.310358215633014,5.310358215633014,5.310358215633014,5.310358215633014
22.913908933333335,1.0,1.3863435344593178,1.0,0.0,0.5049403406700244,0.36914312588801373,3.122007172030959,5.310358215633014,5.310358215633014,5.310358215633014,5.310358215633014,5.310358215633014
22.9148477,1.0,1.3592973308460365,1.0,0.0,0.5013795072397805,1.3020825275221861,1.2501265856166157,0.9037539291982866,0.6285983966777736,0.35425237335873083,1.0369616743778847,3.519208562368253
22.915670366666667,1.0,1.3592973308460365,1.0,0.0,2.2610849156787984,2.261732345304475,2.2615704878977936,2.261408630491287,2.261408630491287,2.2612467730849555,2.2615704878977936,2.261408630491287
22.91649303333333,1.0,1.3592973308460365,1.0,0.0,2.261732345304475,2.261894202711332,2.2615704878977936,2.261894202711332,2.261732345304475,2.261732345304475,2.2615704878977936,2.261894202711332
22.9173154,1.0,1.3461976604358803,1.0,0.0,2.2620560601183635,2.261894202711332,2.2620560601183635,2.261732345304475,2.2620560601183635,2.261894202711332,2.261732345304475,2.261894202711332
22.918663549999998,1.0,1.3461976604358803,1.0,0.0,2.2620560601183635,2.2620560601183635,2.2620560601183635,2.2620560601183635,2.2620560601183635,2.261894202711332,2.2620560601183635,2.261894202711332
22.9200108,1.0,0.958403165806974,1.0,0.0,2.261894202711332,2.261894202711332,2.261894202711332,2.2620560601183635,2.261894202711332,2.26221791752557,2.2620560601183635,2.261894202711332
22.9209073,1.0,0.958403165806974,1.0,0.0,2.26221791752557,2.2620560601183635,2.26221791752557,2.2620560601183635,2.26221791752557,2.2620560601183635,2.2620560601183635,2.26221791752557
22.9218038,1.0,0.958403165806974,1.0,0.0,2.258818912010977,2.2620560601183635,2.26221791752557,2.26221791752557,2.26302720456423,2.2620560601183635,2.2620560601183635,2.26221791752557
22.9226999,1.0,1.2051911907093178,1.0,0.0,2.2623797749329517,2.2623797749329517,2.2625416323405085,2.2625416323405085,2.2623797749329517,2.2623797749329517,2.2623797749329517,2.2623797749329517
22.923493,1.0,1.2051911907093178,1.0,0.0,2.2623797749329517,2.26221791752557,2.2625416323405085,2.2625416323405085,2.26221791752557,2.2623797749329517,2.2623797749329517,2.2625416323405085
22.9242861,1.0,1.2051911907093178,1.0,0.0,0.5068826134648501,1.249317303127557,1.9733027154098963,2.259628199031263,2.2615704878977936,2.2620560601183635,2.2625416323405085,2.2625416323405085
22.9250789,1.0,1.4743619518177162,1.0,0.0,5.310358215633014,5.310358215633014,4.509467265794612,-0.5217116387522651,-4.294748988625032,-5.296978735969328,-4.836165565603123,-5.296978735969328
22.926316749999998,1.0,1.4743619518177162,1.0,0.0,5.310358215633014,5.310358215633014,5.310358215633014,5.310358215633014,0.5450806472291081,-5.042373944340786,-5.296978735969328,-5.296978735969328
22.9275541,1.0,1.6042752818958412,1.0,0.0,5.310358215633014,5.310358215633014,5.310358215633014,5.310358215633014,5.310358215633014,5.310358215633014,-2.776366049868982,-5.296978735969328
22.929149549999998,1.0,1.6042752818958412,1.0,0.0,5.310358215633014,5.310358215633014,5.310358215633014,5.310358215633014,5.310358215633014,5.310358215633014,5.310358215633014,5.310358215633014
22.9307446,1.0,1.1767488078968178,1.0,0.0,5.310358215633014,5.310358215633014,5.310358215633014,5.310358215633014,5.310358215633014,5.310358215633014,5.310358215633014,5.310358215633014
22.931700533333334,1.0,1.1767488078968178,1.0,0.0,0.5109290151541345,0.5811745558208171,0.4743495455095359,0.25471094320559184,2.9072211756986444,5.188637800312227,5.310358215633014,5.310358215633014
22.932656466666668,1.0,1.1767488078968178,1.0,0.0,2.2599519138406023,5.310358215633014,5.310358215633014,5.310358215633014,2.253315760388907,3.2422680789411946,2.2916759685620893,2.251535329024984
22.933612,1.0,1.358589704503263,1.0,0.0,2.261732345304475,2.2615704878977936,2.261732345304475,2.2615704878977936,2.261732345304475,2.261408630491287,2.2615704878977936,2.2615704878977936
22.9345585,1.0,1.358589704503263,1.0,0.0,2.261732345304475,2.261894202711332,2.261894202711332,2.2620560601183635,2.261732345304475,2.261732345304475,2.261894202711332,2.261894202711332
22.935505,1.0,1.358589704503263,1.0,0.0,2.261894202711332,2.2620560601183635,2.2620560601183635,2.261894202711332,2.261894202711332,2.2620560601183635,2.2620560601183635,2.2620560601183635
22.936451,1.0,1.601326520909513,1.0,0.0,2.261894202711332,2.261894202711332,2.261894202711332,2.2623797749329517,2.261894202711332,2.2620560601183635,2.261894202711332,2.26221791752557
22.9374985,1.0,1.601326520909513,1.0,0.0,2.261894202711332,2.2620560601183635,2.26221791752557,2.26221791752557,2.2620560601183635,2.2620560601183635,2.26221791752557,2.26221791752557
22.938546000000002,1.0,1.601326520909513,1.0,0.0,2.2623797749329517,2.26221791752557,2.26221791752557,2.26221791752557,2.26221791752557,2.26221791752557,2.26221791752557,2.2620560601183635
22.9395932,1.0,2.3890920238392006,1.0,0.0,0.5000846587283188,0.6341015049268228,1.6678786198991,2.236806306731836,2.260437486055922,2.261732345304475,2.26221791752557,2.2620560601183635
